#t,ESS,tempDiff,temp
0,200.00000000000065,0.0,0.0
1,199.99979938667866,4.799352164602238E-6,4.799352164602238E-6
2,199.9991971667468,4.79958574382619E-6,9.598937908428428E-6
3,199.9981989290526,4.768512082386882E-6,1.4367449990815311E-5
4,199.9968122875626,4.803487434630028E-6,1.9170937425445338E-5
5,199.99504278820933,4.83202322064966E-6,2.4002960646094998E-5
6,199.99288387060292,4.807998624817767E-6,2.8810959270912765E-5
7,199.99030678125447,4.814874791590759E-6,3.362583406250352E-5
8,199.98732365724288,4.793110289310486E-6,3.841894435181401E-5
9,199.98390016276238,4.838898836705329E-6,4.325784318851934E-5
10,199.98004680565958,4.8404521313464345E-6,4.8098295319865777E-5
11,199.97578857700012,4.817408523944483E-6,5.291570384381026E-5
12,199.97111787868278,4.809346676784605E-6,5.772505052059486E-5
13,199.96600674803625,4.831636855987416E-6,6.255668737658228E-5
14,199.96042783610145,4.8885722218289945E-6,6.744525959841128E-5
15,199.9544974310361,4.881953064418948E-6,7.232721266283023E-5
16,199.94820625692807,4.879443762475764E-6,7.720665642530599E-5
17,199.94157002337772,4.864729933842254E-6,8.207138635914824E-5
18,199.93451928649867,4.8686623199182225E-6,8.694004867906647E-5
19,199.92729888275446,4.749382643899515E-6,9.168943132296597E-5
20,199.91971323466922,4.7470293563130556E-6,9.643646067927902E-5
21,199.91173294087977,4.772916995236408E-6,1.0120937767451543E-4
22,199.9034482505436,4.753386250218994E-6,1.0596276392473442E-4
23,199.89481606463636,4.741556603310058E-6,1.1070432052804448E-4
24,199.88586888660151,4.707004363003791E-6,1.1541132489104828E-4
25,199.87661190381536,4.688579506681822E-6,1.200999043977301E-4
26,199.86701559074237,4.721545510654121E-6,1.2482144990838423E-4
27,199.85704040603827,4.751254694819945E-6,1.2957270460320418E-4
28,199.84658991897138,4.779376778428294E-6,1.3435208138163246E-4
29,199.8358184919414,4.746269735307665E-6,1.3909835111694012E-4
30,199.8245436705848,4.727589604538654E-6,1.4382594072147878E-4
31,199.81283228992706,4.730853552502337E-6,1.4855679427398113E-4
32,199.80084715336088,4.679868583879714E-6,1.5323666285786084E-4
33,199.78853889259108,4.663780904238185E-6,1.5790044376209902E-4
34,199.77597832838083,4.63302417043103E-6,1.6253346793253004E-4
35,199.7630685178797,4.6537456226374166E-6,1.6718721355516746E-4
36,199.74969709113253,4.703357630265188E-6,1.7189057118543265E-4
37,199.73598802667428,4.682410393321965E-6,1.7657298157875461E-4
38,199.72184285622717,4.6869478843737326E-6,1.8125992946312834E-4
39,199.7071689038655,4.731779562752153E-6,1.8599170902588048E-4
40,199.69194959203685,4.801706450873432E-6,1.907934154767539E-4
41,199.67663112728584,4.764546233960292E-6,1.955579617107142E-4
42,199.66081792897532,4.777057154370532E-6,2.0033501886508473E-4
43,199.64448613473377,4.827461844188376E-6,2.051624807092731E-4
44,199.6278394022962,4.802261864022456E-6,2.0996474257329556E-4
45,199.61020558747856,4.955876034924622E-6,2.1492061860822019E-4
46,199.59216942297235,4.96937276397995E-6,2.1988999137220015E-4
47,199.5740096499208,4.932054352787061E-6,2.248220457249872E-4
48,199.5555696884029,4.911369695387418E-6,2.2973341542037462E-4
49,199.53651128598625,4.977994871654197E-6,2.347114102920288E-4
50,199.51659188616242,5.048058008224135E-6,2.3975946830025294E-4
51,199.4958522347706,5.124968786165025E-6,2.4488443708641796E-4
52,199.47469337162138,5.115197702775845E-6,2.499996347891938E-4
53,199.45318895110208,5.102439352044291E-6,2.5510207414123807E-4
54,199.43125997375938,5.0778734353091615E-6,2.601799475765472E-4
55,199.40912913885262,5.02480781486325E-6,2.6520475539141045E-4
56,199.38686406536453,4.9865055333506895E-6,2.7019126092476116E-4
57,199.3647028471304,4.924247613108331E-6,2.751155085378695E-4
58,199.34227023673935,4.929694643886394E-6,2.800452031817559E-4
59,199.31945202865742,4.914773011517151E-6,2.849599761932731E-4
60,199.29669575319537,4.8850267633413446E-6,2.898450029566144E-4
61,199.27346207822683,4.9223185063197485E-6,2.9476732146293416E-4
62,199.24998679866525,4.885163943035456E-6,2.996524854059696E-4
63,199.22627190401852,4.890527143368732E-6,3.0454301254933836E-4
64,199.20192567339228,4.909599590343415E-6,3.0945261213968176E-4
65,199.1775580447305,4.897236074085609E-6,3.1434984821376735E-4
66,199.15265859462767,4.9279622016562765E-6,3.1927781041542365E-4
67,199.12763465912596,4.910191613850994E-6,3.2418800202927464E-4
68,199.1022502414748,4.902364968239159E-6,3.290903669975138E-4
69,199.0762908706089,4.9344647779936336E-6,3.3402483177550745E-4
70,199.0500380277283,4.970484068587542E-6,3.38995315844095E-4
71,199.02356496401413,4.943725604603008E-6,3.43939041448698E-4
72,198.9970811471898,4.931466520871811E-6,3.488705079695698E-4
73,198.9703149283188,4.921001154233096E-6,3.537915091238029E-4
74,198.9431680296706,4.984332380861327E-6,3.587758415046642E-4
75,198.91582406208198,4.969519556570936E-6,3.6374536106123517E-4
76,198.88786131286415,4.979421966517755E-6,3.6872478302775295E-4
77,198.8596401619823,5.002567345193271E-6,3.7372735037294623E-4
78,198.8311087966875,5.021435384952114E-6,3.7874878575789835E-4
79,198.80287405372485,4.957922913840505E-6,3.8370670867173885E-4
80,198.77390815076768,4.99525440202206E-6,3.887019630737609E-4
81,198.74480204149546,4.9506000671817665E-6,3.9365256314094266E-4
82,198.71521491425725,4.983877639010314E-6,3.9863644077995297E-4
83,198.68532545154042,4.986981866970652E-6,4.036234226469236E-4
84,198.65509137824031,5.036061619528516E-6,4.0865948426645215E-4
85,198.62488298110245,5.018987983681126E-6,4.1367847225013326E-4
86,198.59466734559325,5.059695340435255E-6,4.187381675905685E-4
87,198.56453935040201,4.982683177870506E-6,4.2372085076843903E-4
88,198.53391716938614,5.018225497377904E-6,4.2873907626581693E-4
89,198.50318572102933,5.019776399758137E-6,4.3375885266557504E-4
90,198.4718950917993,5.0593136961980385E-6,4.388181663617731E-4
91,198.4404114748592,5.062063853034431E-6,4.438802302148075E-4
92,198.40862386067647,5.049528675787526E-6,4.4892975889059504E-4
93,198.37625964560692,5.092422872214916E-6,4.5402218176280993E-4
94,198.34374920973477,5.096984264933144E-6,4.5911916602774306E-4
95,198.31086871014622,5.07603273157566E-6,4.641951987593187E-4
96,198.27804410151504,5.042217968035272E-6,4.6923741672735397E-4
97,198.24559793851543,5.023934665807807E-6,4.7426135139316177E-4
98,198.2126537237472,5.0354366674096914E-6,4.792967880605715E-4
99,198.17975271420877,5.043124783882555E-6,4.84339912844454E-4
100,198.1463582752752,5.104285473767301E-6,4.894441983182213E-4
101,198.1127774365727,5.127821386904173E-6,4.945720197051255E-4
102,198.07848391006928,5.171138652767784E-6,4.997431583578933E-4
103,198.04404085021986,5.140341898003909E-6,5.048835002558972E-4
104,198.00918603229604,5.1644085947324435E-6,5.100479088506296E-4
105,197.97442399892367,5.123682763328122E-6,5.151715916139577E-4
106,197.9397344878525,5.082911401941099E-6,5.202545030158988E-4
107,197.9051452643652,5.110509289485091E-6,5.253650123053839E-4
108,197.8705040399045,5.1163157484012425E-6,5.304813280537852E-4
109,197.83609817278654,5.039810702156486E-6,5.355211387559417E-4
110,197.80087763793136,5.115900113317634E-6,5.406370388692593E-4
111,197.76557346043674,5.072926966751538E-6,5.457099658360109E-4
112,197.730260333602,5.0648999964280904E-6,5.50774865832439E-4
113,197.6950395280119,5.032008590812014E-6,5.558068744232511E-4
114,197.65881092973038,5.0577586404001E-6,5.608646330636512E-4
115,197.6220382583211,5.080766404137414E-6,5.659453994677886E-4
116,197.58527244673806,5.074296383890498E-6,5.710196958516791E-4
117,197.5480650521389,5.056431543292543E-6,5.760761273949717E-4
118,197.51118374346112,5.068925454390292E-6,5.81145052849362E-4
119,197.47418558706758,5.07947854284145E-6,5.862245313922035E-4
120,197.43697536575465,5.08905594959107E-6,5.913135873417946E-4
121,197.3997220279416,5.0745227799270335E-6,5.963881101217216E-4
122,197.36266035450566,5.065067747796954E-6,6.014531778695185E-4
123,197.3262285386687,5.000806362325811E-6,6.064539842318443E-4
124,197.28924436962208,5.077352966544063E-6,6.115313371983884E-4
125,197.2522345036191,5.078327697878691E-6,6.16609664896267E-4
126,197.21487333361952,5.100242191323551E-6,6.217099070875906E-4
127,197.17715298488082,5.116801559015239E-6,6.268267086466058E-4
128,197.13897822995872,5.11553948138156E-6,6.319422481279874E-4
129,197.10058253358784,5.089148451541221E-6,6.370313965795286E-4
130,197.06260575119126,5.0281136808909E-6,6.420595102604195E-4
131,197.0240002413244,5.089308785166837E-6,6.471488190455863E-4
132,196.9860605401903,5.046535992004511E-6,6.521953550375909E-4
133,196.94741838720617,5.0508609046118795E-6,6.572462159422027E-4
134,196.90910591989874,5.0215864919354375E-6,6.622678024341381E-4
135,196.87003809879457,5.0980628340837275E-6,6.673658652682218E-4
136,196.83012385471764,5.127445391343047E-6,6.724933106595648E-4
137,196.78989482904203,5.088777369161277E-6,6.775820880287262E-4
138,196.74927601721166,5.095293774108728E-6,6.826773818028349E-4
139,196.70824377311658,5.152036251832827E-6,6.878294180546678E-4
140,196.66635785875806,5.2408308819342566E-6,6.93070248936602E-4
141,196.6248209383382,5.206765977613061E-6,6.98277014914215E-4
142,196.58291859025616,5.19269967465229E-6,7.034697145888673E-4
143,196.5410983208621,5.164044933781663E-6,7.08633759522649E-4
144,196.49874168735911,5.179617142679184E-6,7.138133766653282E-4
145,196.45594718352663,5.188475623058113E-6,7.190018522883863E-4
146,196.41237699056856,5.229266339429615E-6,7.242311186278159E-4
147,196.36790283243712,5.249880375943016E-6,7.294809990037589E-4
148,196.32405486730684,5.17502982334857E-6,7.346560288271075E-4
149,196.2798770372662,5.180453274975965E-6,7.398364821020834E-4
150,196.23560423421918,5.177896329932182E-6,7.450143784320155E-4
151,196.19140904133252,5.16899918094543E-6,7.501833776129609E-4
152,196.14645136278742,5.240658870321903E-6,7.554240364832828E-4
153,196.10176451894588,5.2102884359351654E-6,7.60634324919218E-4
154,196.0568215642632,5.1659782205120614E-6,7.658003031397301E-4
155,196.01006494105727,5.241521764990778E-6,7.710418249047209E-4
156,195.96235224996278,5.267620850059505E-6,7.763094457547804E-4
157,195.91505916754804,5.284917302785003E-6,7.815943630575654E-4
158,195.86775180653274,5.285037203180013E-6,7.868794002607454E-4
159,195.82007671628995,5.256106160773423E-6,7.921355064215189E-4
160,195.77156266219225,5.307771467856933E-6,7.974432778893758E-4
161,195.72214658711346,5.3517239231764E-6,8.027950018125522E-4
162,195.67195662184804,5.3762010549001395E-6,8.081712028674523E-4
163,195.62079678753264,5.4310563669851255E-6,8.136022592344375E-4
164,195.57016609221932,5.362257724040779E-6,8.189645169584782E-4
165,195.51998331995904,5.363820889053678E-6,8.243283378475319E-4
166,195.46888884720423,5.393130634774283E-6,8.297214684823062E-4
167,195.41790291458298,5.444246542867931E-6,8.351657150251741E-4
168,195.36604408885563,5.508085584153313E-6,8.406738006093274E-4
169,195.31324186936865,5.481165301491101E-6,8.461549659108186E-4
170,195.26015049436532,5.496575108486702E-6,8.516515410193052E-4
171,195.2065306125073,5.4551344578162065E-6,8.571066754771215E-4
172,195.15242597610313,5.465978749858924E-6,8.625726542269804E-4
173,195.09893806587854,5.40409818519976E-6,8.679767524121801E-4
174,195.04513652086948,5.464199279538124E-6,8.734409516917182E-4
175,194.99091398444256,5.461687734963138E-6,8.789026394266814E-4
176,194.93680067657067,5.418655765685332E-6,8.843212951923667E-4
177,194.88278509728187,5.386485397601033E-6,8.897077805899678E-4
178,194.82869050179158,5.425458261039191E-6,8.95133238851007E-4
179,194.77482399524544,5.414797291290502E-6,9.005480361422975E-4
180,194.71997894417174,5.470231981825121E-6,9.060182681241227E-4
181,194.66457509359813,5.528146808260501E-6,9.115464149323832E-4
182,194.6096658471461,5.539387478952969E-6,9.170858024113362E-4
183,194.55575269112902,5.506166308225541E-6,9.225919687195617E-4
184,194.5015699348992,5.488216937838118E-6,9.280801856573998E-4
185,194.44667886504035,5.55581548594894E-6,9.336360011433487E-4
186,194.39112740395984,5.62884416910207E-6,9.392648453124508E-4
187,194.33556152522644,5.63975098801981E-6,9.449045963004706E-4
188,194.27981458311703,5.673979887705118E-6,9.505785761881757E-4
189,194.2244751890994,5.622564644641557E-6,9.562011408328173E-4
190,194.16854030006846,5.6639718583404315E-6,9.618651126911577E-4
191,194.11258339670775,5.684712274940822E-6,9.675498249660985E-4
192,194.05695626457555,5.639376081752168E-6,9.731892010478507E-4
193,194.0019730994731,5.594652155584967E-6,9.787838532034356E-4
194,193.94771031698144,5.4989955627217525E-6,9.842828487661574E-4
195,193.89312629910592,5.441356600866756E-6,9.897242053670242E-4
196,193.83697153918544,5.498184177167481E-6,9.952223895441916E-4
197,193.78143220891545,5.494806969845798E-6,0.0010007171965140374
198,193.72531276966112,5.54169573753244E-6,0.0010062588922515698
199,193.66875788777904,5.608380598295715E-6,0.0010118672728498656
200,193.61397348686955,5.53316136773755E-6,0.0010174004342176032
201,193.5597440997836,5.5136846380794456E-6,0.0010229141188556827
202,193.50587180268315,5.4952924820302435E-6,0.001028409411337713
203,193.4524425834051,5.50023853864507E-6,0.001033909649876358
204,193.39913921289548,5.460571230435213E-6,0.0010393702211067932
205,193.3454356431893,5.479243432677257E-6,0.0010448494645394705
206,193.29262041125148,5.455866306250789E-6,0.0010503053308457213
207,193.23947367886052,5.477659721159574E-6,0.0010557829905668808
208,193.18739571614492,5.412349011623832E-6,0.0010611953395785047
209,193.1347881673685,5.469267627110139E-6,0.0010666646072056147
210,193.08243097522438,5.420697877372657E-6,0.0010720853050829875
211,193.0294372266349,5.434372017506061E-6,0.0010775196771004936
212,192.9755794175565,5.483885966612647E-6,0.0010830035630671063
213,192.92099335576992,5.534456938795588E-6,0.0010885380200059019
214,192.86736584940525,5.451568395547509E-6,0.0010939895884014494
215,192.81452185526592,5.361476597244054E-6,0.0010993510649986934
216,192.7613703457924,5.36287382106597E-6,0.0011047139388197594
217,192.7083383571849,5.384406789904647E-6,0.001110098345609664
218,192.65478142927572,5.3767867216106535E-6,0.0011154751323312747
219,192.60177466592592,5.335936080739709E-6,0.0011208110684120145
220,192.5474186872449,5.373380504524204E-6,0.0011261844489165388
221,192.49399391178596,5.332437761772623E-6,0.0011315168866783114
222,192.44152334436262,5.2327814793665556E-6,0.001136749668157678
223,192.38948215919123,5.1765996461852236E-6,0.0011419262678038634
224,192.3367238332836,5.137310551181E-6,0.0011470635783550444
225,192.28344328386152,5.107497450557226E-6,0.0011521710758056016
226,192.2297680414594,5.088973738558124E-6,0.0011572600495441598
227,192.17551089548775,5.097903421917311E-6,0.001162357952966077
228,192.12268698449168,5.024231370182502E-6,0.0011673821843362596
229,192.069647502249,4.9784738813699224E-6,0.0011723606582176296
230,192.0168886536855,4.927316311316923E-6,0.0011772879745289464
231,191.96403203051457,4.921581408550551E-6,0.001182209555937497
232,191.91151658050055,4.883017959715973E-6,0.001187092573897213
233,191.85839321357844,4.867699077341303E-6,0.0011919602729745544
234,191.80502152336658,4.873637635167899E-6,0.0011968339106097222
235,191.75266417860587,4.851362661328568E-6,0.0012016852732710508
236,191.7005535022486,4.810663059582284E-6,0.0012064959363306332
237,191.64747742647046,4.83676234188669E-6,0.0012113326986725199
238,191.59520383741358,4.839936573187983E-6,0.0012161726352457078
239,191.542804628991,4.858203068934247E-6,0.001221030838314642
240,191.49011836936907,4.855980417829636E-6,0.0012258868187324716
241,191.43743240048755,4.881905273759518E-6,0.0012307687240062312
242,191.3844549417315,4.8863565612048666E-6,0.001235655080567436
243,191.33075725392342,4.924371064178759E-6,0.0012405794516316148
244,191.27718286492234,4.923777238501721E-6,0.0012455032288701165
245,191.22359763246178,4.903955710887848E-6,0.0012504071845810044
246,191.17021453649372,4.8638768920592785E-6,0.0012552710614730637
247,191.11611853732163,4.881377265676016E-6,0.0012601524387387396
248,191.06287020811985,4.879241653932233E-6,0.001265031680392672
249,191.00966444667185,4.8799370550754816E-6,0.0012699116174477473
250,190.9556090637606,4.895925844347416E-6,0.0012748075432920947
251,190.90291368391573,4.854292034767787E-6,0.0012796618353268624
252,190.85068338697704,4.860461824539989E-6,0.0012845222971514024
253,190.79885150705974,4.825225641877306E-6,0.0012893475227932797
254,190.74675327965554,4.863205535883027E-6,0.0012942107283291627
255,190.69477937765006,4.892838663443219E-6,0.0012991035669926059
256,190.64277912809538,4.8792221110168365E-6,0.0013039827891036227
257,190.59065406262366,4.8233406867508105E-6,0.0013088061297903736
258,190.53764284725574,4.817212534447402E-6,0.001313623342324821
259,190.48417792198177,4.8354673199684435E-6,0.0013184588096447894
260,190.43092946406804,4.865231481012674E-6,0.001323324041125802
261,190.37693701398405,4.889835444302093E-6,0.0013282138765701042
262,190.32261817878944,4.94653397028858E-6,0.0013331604105403928
263,190.26755653052018,4.915634117083061E-6,0.001338076044657476
264,190.21257290351588,4.916188946224996E-6,0.001342992233603701
265,190.15698040390242,4.909333805131795E-6,0.0013479015674088327
266,190.1016417077701,4.909222861746505E-6,0.001352810790270579
267,190.0457849037656,4.911961113049027E-6,0.001357722751383628
268,189.98931741872855,4.925710962793905E-6,0.001362648462346422
269,189.93246234094696,4.919730380294337E-6,0.0013675681927267163
270,189.87569048513896,4.906525556641928E-6,0.0013724747182833582
271,189.8187670041004,4.906631260612306E-6,0.0013773813495439706
272,189.76074236821984,4.882230633726301E-6,0.0013822635801776968
273,189.7037727474824,4.852181782427415E-6,0.0013871157619601243
274,189.6462651796315,4.892347199429825E-6,0.0013920081091595541
275,189.58929361760593,4.867864692088436E-6,0.0013968759738516427
276,189.53338056816708,4.860274264886118E-6,0.0014017362481165288
277,189.47656906154793,4.870646123575019E-6,0.0014066068942401038
278,189.41950935538975,4.869421515072776E-6,0.0014114763157551766
279,189.36292442060486,4.8398121407026835E-6,0.0014163161278958794
280,189.3060003486495,4.8308559626482656E-6,0.0014211469838585277
281,189.24726874700096,4.8835746346336825E-6,0.0014260305584931614
282,189.18807103111806,4.884874837999394E-6,0.001430915433331161
283,189.12785814209508,4.914368092857778E-6,0.0014358298014240187
284,189.0677810642412,4.91688417564577E-6,0.0014407466855996644
285,189.00792898646975,4.965543961234932E-6,0.0014457122295608994
286,188.9478105140168,5.004689239110864E-6,0.0014507169188000104
287,188.88615975826505,5.074767651646945E-6,0.0014557916864516574
288,188.82443393012215,5.0766200236479685E-6,0.0014608683064753054
289,188.76329450216048,5.033035511276031E-6,0.0014659013419865813
290,188.70205635934042,5.072297710664113E-6,0.0014709736396972455
291,188.64149857328303,5.030974531464649E-6,0.0014760046142287102
292,188.58253037272263,4.967222271174661E-6,0.0014809718364998847
293,188.52192187713803,4.915398734165997E-6,0.0014858872352340507
294,188.46119120651173,4.896446458581331E-6,0.0014907836816926321
295,188.4019789963536,4.834931350925329E-6,0.0014956186130435575
296,188.3435876467303,4.866713751468553E-6,0.0015004853267950261
297,188.28541503688618,4.890444266973203E-6,0.0015053757710619994
298,188.2260777099328,4.849198361841564E-6,0.001510224969423841
299,188.1660810564687,4.939669686013162E-6,0.0015151646391098543
300,188.10532461962228,4.989403270379424E-6,0.0015201540423802338
301,188.04418800934133,4.97573300395127E-6,0.001525129775384185
302,187.98500446825608,4.972605997979828E-6,0.001530102381382165
303,187.92589598958847,5.05256703107885E-6,0.001535154948413244
304,187.86600051303873,5.068132657955254E-6,0.001540223081071199
305,187.80657822890296,5.112383092264548E-6,0.0015453354641634636
306,187.74726664036626,5.117088111998191E-6,0.0015504525522754618
307,187.6879226061967,5.111791916476494E-6,0.0015555643441919384
