#t,ESS,tempDiff,temp
0,300.00000000000114,0.0,0.0
1,299.9999999999998,2.7008101620270046E-11,2.7008101620270046E-11
2,299.99999999999875,1.8905671134189033E-10,2.1606481296216037E-10
3,299.99999999998784,5.131539307851306E-10,7.29218743747291E-10
4,299.99999999993076,9.99299759949992E-10,1.728518503697283E-9
5,299.99999999973244,1.6474941988364716E-9,3.3760127025337546E-9
6,299.999999999192,2.4577372474445733E-9,5.833749949978328E-9
7,299.9999999979431,3.4300289057742956E-9,9.263778855752624E-9
8,299.9999999954789,4.56436917382564E-9,1.3828148029578264E-8
9,299.9999999909545,5.860758051598596E-9,1.968890608117686E-8
10,299.9999999830325,7.3191955390931765E-9,2.7008101620270036E-8
11,299.9999999699449,8.939681636309391E-9,3.594778325657943E-8
12,299.9999999491588,1.0722216343247196E-8,4.666999959982662E-8
13,299.99999991846715,1.2666799659906662E-8,5.9336799259733286E-8
14,299.99999987321553,1.4773431586287703E-8,7.411023084602099E-8
15,299.99999980865573,1.704211212239041E-8,9.11523429684114E-8
16,299.99999971817874,1.9472841268214714E-8,1.1062518423662611E-7
17,299.9999995916548,2.2065619023760586E-8,1.326908032603867E-7
18,299.99999942163,2.4820445389028183E-8,1.5751124864941488E-7
19,299.99999919590186,2.773732036401736E-8,1.8524856901343224E-7
20,299.99999890079494,3.081624394872805E-8,2.160648129621603E-7
21,299.9999985201444,3.405721614316055E-8,2.5012202910532084E-7
22,299.9999980415173,3.746023694731458E-8,2.875822660526354E-7
23,299.9999974445958,4.102530636119021E-8,3.2860757241382563E-7
24,299.99999670144837,4.4752424384787353E-8,3.73359996798613E-7
25,299.9999957964691,4.864159101810638E-8,4.2200158781671937E-7
26,299.99999468234944,5.269280626114692E-8,4.746943940778663E-7
27,299.99999335641627,5.6906070113908974E-8,5.316004641917753E-7
28,299.9999917373309,6.128138257639265E-8,5.928818467681679E-7
29,299.99998980505023,6.581874364859789E-8,6.587005904167658E-7
30,299.99998754182985,7.051815333052538E-8,7.292187437472912E-7
31,299.99998489969363,7.537961162217354E-8,8.045983553694647E-7
32,299.99998184150854,8.040311852354417E-8,8.850014738930089E-7
33,299.99997824135295,8.558867403463557E-8,9.705901479276445E-7
34,299.999974075659,9.093627815544912E-8,1.0615264260830936E-6
35,299.9999692979,9.64459308859846E-8,1.1579723569690782E-6
36,299.99996376082106,1.0211763222624086E-7,1.260089989195319E-6
37,299.999957344739,1.0795138217621916E-7,1.3680413713715382E-6
38,299.9999501462568,1.1394718073591972E-7,1.481988552107458E-6
39,299.99994203650664,1.2010502790534063E-7,1.6020935800127985E-6
40,299.99993287864027,1.2642492368448379E-7,1.7285185036972823E-6
41,299.9999226188089,1.329068680733492E-7,1.8614253717706315E-6
42,299.99991129588733,1.3955086107193518E-7,2.0009762328425667E-6
43,299.99989871581124,1.4635690268024383E-7,2.1473331355228105E-6
44,299.99988489659563,1.5332499289827283E-7,2.3006581284210834E-6
45,299.9998696672225,1.6045513172602366E-7,2.461113260147107E-6
46,299.9998527589389,1.6774731916349802E-7,2.628860579310605E-6
47,299.9998336984544,1.7520155521069125E-7,2.8040621345212963E-6
48,299.99981257340454,1.8281783986760758E-7,2.986879974388904E-6
49,299.99978986470904,1.9059617313424658E-7,3.1774761475231505E-6
50,299.9997647177987,1.9853655501060446E-7,3.376012702533755E-6
51,299.99973701859795,2.0663898549668585E-7,3.5826516880304408E-6
52,299.9997065828117,2.149034645924895E-7,3.7975551526229303E-6
53,299.9996736726605,2.2332999229801245E-7,4.020885144920943E-6
54,299.9996377424541,2.3191856861325934E-7,4.252803713534202E-6
55,299.9995988340069,2.406691935382247E-7,4.493472907072427E-6
56,299.99955636032234,2.495818670729165E-7,4.743054774145343E-6
57,299.9995105646023,2.586565892173272E-7,5.0017113633626704E-6
58,299.9994605581192,2.678933599714559E-7,5.269604723334126E-6
59,299.999406656932,2.7729217933531364E-7,5.54689690266944E-6
60,299.99934676835744,2.868530473088894E-7,5.833749949978329E-6
61,299.9992816316972,2.9657596389218657E-7,6.130325913870516E-6
62,299.9992125683352,3.0646092908520176E-7,6.436786842955718E-6
63,299.9991359887238,3.1650794288794513E-7,6.753294785843663E-6
64,299.999051185758,3.267170053004082E-7,7.080011791144071E-6
65,299.9989614380412,3.3708811632258763E-7,7.417099907466659E-6
66,299.9988631291499,3.476212759544969E-7,7.764721183421156E-6
67,299.9987587403804,3.583164841961234E-7,8.123037667617279E-6
68,299.99865047072825,3.6917374104746956E-7,8.492211408664749E-6
69,299.99853702084914,3.801930465085422E-7,8.87240445517329E-6
70,299.9984155971072,3.913744005793346E-7,9.263778855752625E-6
71,299.99828521584584,4.027178032598433E-7,9.666496659012469E-6
72,299.998140615843,4.142232545500836E-7,1.0080719913562552E-5
73,299.9979834902019,4.258907544500402E-7,1.0506610668012592E-5
74,299.9978144206519,4.377203029597131E-7,1.0944330970972306E-5
75,299.99763404938744,4.497119000791176E-7,1.1394042871051423E-5
76,299.9974390647815,4.6186554580824014E-7,1.1855908416859663E-5
77,299.99723427749024,4.741812401470773E-7,1.233008965700674E-5
78,299.997015510424,4.866589830956477E-7,1.2816748640102388E-5
79,299.9967799836777,4.992987746539328E-7,1.3316047414756321E-5
80,299.99652536424543,5.121006148219375E-7,1.3828148029578259E-5
81,299.99624971765513,5.250645035996705E-7,1.4353212533177929E-5
82,299.9959574367091,5.381904409871231E-7,1.4891402974165052E-5
83,299.9956484102603,5.514784269842955E-7,1.5442881401149348E-5
84,299.99532077433076,5.649284615911859E-7,1.6007809862740534E-5
85,299.9949700402767,5.785405448078045E-7,1.6586350407548338E-5
86,299.99460706154923,5.923146766341462E-7,1.7178665084182484E-5
87,299.994227797236,6.062508570701974E-7,1.778491594125268E-5
88,299.99382000732163,6.203490861159853E-7,1.8405265027368667E-5
89,299.99337709614156,6.346093637714861E-7,1.9039874391140153E-5
90,299.9929137055614,6.490316900367032E-7,1.9688906081176856E-5
91,299.9924096873265,6.636160649116604E-7,2.0352522146088517E-5
92,299.99187905201154,6.783624883963238E-7,2.103088463448484E-5
93,299.99131452574596,6.932709604907068E-7,2.1724155594975547E-5
94,299.9907205749884,7.083414811948232E-7,2.243249707617037E-5
95,299.99010507526856,7.235740505086592E-7,2.315607112667903E-5
96,299.9894573561326,7.389686684322014E-7,2.389503979511123E-5
97,299.9887945322887,7.54525334965487E-7,2.4649565130076718E-5
98,299.98808659508745,7.702440501084856E-7,2.5419809180185204E-5
99,299.9873423794982,7.861248138611937E-7,2.6205933994046397E-5
100,299.98656988518087,8.021676262236419E-7,2.700810162027004E-5
101,299.98576279336,8.183724871958064E-7,2.7826474107465846E-5
102,299.98490925843146,8.347393967776804E-7,2.8661213504243526E-5
103,299.98402766912693,8.512683549692945E-7,2.951248185921282E-5
104,299.9830985428736,8.679593617706215E-7,3.0380441220983442E-5
105,299.98212512180555,8.848124171816615E-7,3.1265253638165104E-5
106,299.98110717069363,9.018275212024381E-7,3.216708115936754E-5
107,299.98003147971133,9.19004673832931E-7,3.308608583320047E-5
108,299.97891009107275,9.363438750731437E-7,3.4022429708273617E-5
109,299.97772234485683,9.538451249230828E-7,3.49762748331967E-5
110,299.9764665352047,9.715084233827146E-7,3.5947783256579414E-5
111,299.9751607975651,9.893337704521135E-7,3.693711702703153E-5
112,299.9738058476681,1.0073211661312185E-6,3.7944438193162746E-5
113,299.97239619435214,1.0254706104200365E-6,3.896990880358278E-5
114,299.9709313954334,1.043782103318581E-6,4.0013690906901363E-5
115,299.9693979435804,1.0622556448268452E-6,4.107594655172821E-5
116,299.9678325739873,1.080891234944802E-6,4.215683778667301E-5
117,299.9662166926603,1.0996888736725395E-6,4.325652666034555E-5
118,299.9645292057616,1.1186485610099696E-6,4.437517522135552E-5
119,299.9627906706865,1.1377702969571195E-6,4.551294551831264E-5
120,299.9610086912232,1.1570540815139958E-6,4.6669999599826635E-5
121,299.9591485860048,1.176499914680585E-6,4.784649951450722E-5
122,299.9572403216379,1.1961077964569076E-6,4.904260731096413E-5
123,299.95531131725903,1.2158777268429091E-6,5.025848503780704E-5
124,299.95331254504504,1.235809705838705E-6,5.149429474364574E-5
125,299.9512231474938,1.2559037334441798E-6,5.275019847708992E-5
126,299.94904749329726,1.2761598096593812E-6,5.40263582867493E-5
127,299.94674942870716,1.296577934484309E-6,5.532293622123361E-5
128,299.9443420554908,1.3171581079189567E-6,5.664009432915257E-5
129,299.94177738937066,1.33790032996329E-6,5.797799465911586E-5
130,299.9391295305347,1.358804600617411E-6,5.933679925973327E-5
131,299.9363824494415,1.3798709198812245E-6,6.0716670179614494E-5
132,299.93354793637525,1.401099287754751E-6,6.211776946736924E-5
133,299.9305832400144,1.4224897042380038E-6,6.354025917160725E-5
134,299.9274993694048,1.4440421693309832E-6,6.498430134093823E-5
135,299.9242675969221,1.4657566830336553E-6,6.645005802397189E-5
136,299.9208909266114,1.4876332453461012E-6,6.793769126931799E-5
137,299.91743775470815,1.5096718562682398E-6,6.944736312558623E-5
138,299.9139348807974,1.531872515800098E-6,7.097923564138633E-5
139,299.9103624675723,1.5542352239416896E-6,7.253347086532802E-5
140,299.9067591269621,1.5767599806929873E-6,7.4110230846021E-5
141,299.9029770245609,1.5994467860539776E-6,7.570967763207498E-5
142,299.89891003842655,1.622295640024769E-6,7.733197327209975E-5
143,299.89473259258784,1.6453065426052393E-6,7.897727981470499E-5
144,299.8903666972664,1.6684794937954294E-6,8.064575930850042E-5
145,299.8858390071488,1.6918144935953392E-6,8.233757380209576E-5
146,299.8810197098693,1.7153115420049823E-6,8.405288534410074E-5
147,299.8760550530328,1.7389706390243316E-6,8.579185598312507E-5
148,299.8709545033555,1.7627917846533734E-6,8.755464776777844E-5
149,299.8656687039387,1.7867749788922027E-6,8.934142274667065E-5
150,299.8602614908021,1.8109202217407382E-6,9.115234296841139E-5
151,299.8546486465855,1.8352275131989799E-6,9.298757048161037E-5
152,299.8488705715043,1.8596968532669412E-6,9.484726733487731E-5
153,299.84277060449284,1.8843282419446223E-6,9.673159557682193E-5
154,299.83653801168333,1.909121679231996E-6,9.864071725605393E-5
155,299.8300307657306,1.934077165129157E-6,1.0057479442118308E-4
156,299.82335813774347,1.9591946996360245E-6,1.0253398912081911E-4
157,299.8162769168864,1.9844742827525844E-6,1.0451846340357169E-4
158,299.8089232224787,2.0099159144788776E-6,1.0652837931805057E-4
159,299.8012534376756,2.035519594814904E-6,1.0856389891286547E-4
160,299.7933380757091,2.061285323760596E-6,1.1062518423662607E-4
161,299.78507906092915,2.087213101316089E-6,1.1271239733794216E-4
162,299.77646633686277,2.1133029274812747E-6,1.1482570026542343E-4
163,299.76751061434146,2.13955480225618E-6,1.1696525506767961E-4
164,299.7584787633981,2.165968725640805E-6,1.1913122379332042E-4
165,299.74944700822834,2.1925446976351498E-6,1.2132376849095557E-4
166,299.7401666531123,2.2192827182392142E-6,1.2354305120919478E-4
167,299.7306332038456,2.2461827874529713E-6,1.2578923399664775E-4
168,299.7209288935489,2.273244905276516E-6,1.2806247890192427E-4
169,299.7111010423285,2.300469071709753E-6,1.3036294797363402E-4
170,299.7010755384295,2.3278552867526828E-6,1.326908032603867E-4
171,299.69095352538096,2.3554035504053865E-6,1.350462068107921E-4
172,299.6803620993815,2.3831138626677828E-6,1.3742932067345987E-4
173,299.6693528902486,2.4109862235398446E-6,1.3984030689699972E-4
174,299.6580348958704,2.4390206330217345E-6,1.4227932753002145E-4
175,299.6468517621812,2.46721709111329E-6,1.4474654462113474E-4
176,299.6356322798414,2.495575597814592E-6,1.4724212021894934E-4
177,299.62405544298633,2.524096153125587E-6,1.4976621637207492E-4
178,299.61208281923695,2.5527787570463016E-6,1.5231899512912122E-4
179,299.59962340545206,2.581623409576709E-6,1.5490061853869793E-4
180,299.5867851152159,2.610630110716917E-6,1.5751124864941485E-4
181,299.57355306361484,2.639798860466845E-6,1.601510475098817E-4
182,299.56036700598173,2.6691296588264384E-6,1.6282017716870813E-4
183,299.54678216078474,2.6986225057957515E-6,1.6551879967450388E-4
184,299.53271771499254,2.7282774013748386E-6,1.6824707707587872E-4
185,299.5184242549374,2.758094345563537E-6,1.7100517142144226E-4
186,299.5037949891664,2.7880733383621177E-6,1.7379324475980438E-4
187,299.4888847197535,2.8182143797703097E-6,1.766114591395747E-4
188,299.47355710993264,2.8485174697882756E-6,1.7945997660936296E-4
189,299.4575133138583,2.878982608415934E-6,1.823389592177789E-4
190,299.4408446371157,2.9096097956533395E-6,1.8524856901343224E-4
191,299.4236723921838,2.9403990315004104E-6,1.8818896804493265E-4
192,299.4061276313353,2.971350315957201E-6,1.9116031836088985E-4
193,299.3881169978551,3.0024636490238196E-6,1.9416278200991367E-4
194,299.3694010448519,3.0337390307000767E-6,1.9719652104061374E-4
195,299.350741993426,3.0651764609860807E-6,2.0026169750159983E-4
196,299.3314577915167,3.0967759398818043E-6,2.0335847344148163E-4
197,299.31159363678586,3.1285374673872205E-6,2.0648701090886885E-4
198,299.29138447786346,3.1604610435023294E-6,2.0964747195237118E-4
199,299.27072841793097,3.1925466682272664E-6,2.1284001862059845E-4
200,299.24946105360914,3.224794341561869E-6,2.1606481296216031E-4
201,299.22783034469603,3.257204063506191E-6,2.193220170256665E-4
202,299.2060005129586,3.28977583406026E-6,2.2261179285972677E-4
203,299.18280097364647,3.3225096532240217E-6,2.259343025129508E-4
204,299.1590364216588,3.3554055209974217E-6,2.292897080339482E-4
205,299.1346131875786,3.388463437380704E-6,2.3267817147132891E-4
206,299.1102189281734,3.421683402373652E-6,2.3609985487370257E-4
207,299.085449437423,3.4550654159762925E-6,2.3955492028967886E-4
208,299.0605068283818,3.4886094781886798E-6,2.4304352976786754E-4
209,299.0346905027986,3.5223155890106784E-6,2.465658453568782E-4
210,299.00751091840954,3.5561837484426135E-6,2.5012202910532083E-4
211,298.979787982614,3.5902139564840787E-6,2.537122430618049E-4
212,298.95175220395623,3.624406213135426E-6,2.5733664927494033E-4
213,298.9238639290143,3.658760518396385E-6,2.609954097933367E-4
214,298.8956170154798,3.6932768722670634E-6,2.646886866656038E-4
215,298.86589404869943,3.7279552747475158E-6,2.684166419403513E-4
216,298.8364777567569,3.7627957258376337E-6,2.7217943766618893E-4
217,298.8063824677046,3.7977982255375255E-6,2.7597723589172646E-4
218,298.77567435799523,3.832962773847137E-6,2.798101986655736E-4
219,298.74478798103036,3.868289370766414E-6,2.8367848803634E-4
220,298.71256342701673,3.9037780162953025E-6,2.875822660526353E-4
221,298.67962109538746,3.939428710434236E-6,2.9152169476306955E-4
222,298.6460054431119,3.975241453182672E-6,2.954969362162522E-4
223,298.6119789882126,4.011216244540936E-6,2.9950815246079316E-4
224,298.57708019553024,4.047353084508812E-6,3.0355550554530197E-4
225,298.54231348722465,4.0836519730864614E-6,3.0763915751838843E-4
226,298.50621516393085,4.120112910273831E-6,3.1175927042866226E-4
227,298.46942336173515,4.15673589607092E-6,3.159160063247332E-4
228,298.43158843282345,4.193520930477728E-6,3.201095272552109E-4
229,298.39305054519855,4.230468013494257E-6,3.2433999526870516E-4
230,298.35396581412135,4.267577145120505E-6,3.2860757241382567E-4
231,298.31347850491403,4.304848325356473E-6,3.3291242073918214E-4
232,298.2722829142697,4.342281554201943E-6,3.372547022933841E-4
233,298.23065537185647,4.379876831657622E-6,3.416345791250417E-4
234,298.1880952529387,4.4176341577226944E-6,3.460522132827644E-4
235,298.14552629953306,4.455553532397595E-6,3.50507766815162E-4
236,298.10179869030105,4.493634955682162E-6,3.5500140177084416E-4
237,298.0571674803507,4.531878427576502E-6,3.5953328019842066E-4
238,298.0113398479214,4.570283948080454E-6,3.641035641465011E-4
239,297.9639205505963,4.608851517194233E-6,3.6871241566369535E-4
240,297.9154999252265,4.647581134917733E-6,3.733599967986131E-4
241,297.86640855607607,4.686472801250898E-6,3.78046469599864E-4
242,297.8158064324298,4.7255265161937825E-6,3.8277199611605776E-4
243,297.7644957745091,4.764742279746441E-6,3.875367383958042E-4
244,297.71214723994325,4.804120091908819E-6,3.92340858487713E-4
245,297.6589600745855,4.843659952680646E-6,3.9718451844039367E-4
246,297.6046249983827,4.883361862062627E-6,4.020678803024563E-4
247,297.54874834240474,4.923225820054218E-6,4.069911061225105E-4
248,297.4920860930119,4.963251826655421E-6,4.1195435794916593E-4
249,297.4349216964178,5.003439881866344E-6,4.169577978310323E-4
250,297.37602105554265,5.043789985687095E-6,4.2200158781671937E-4
251,297.3150182488594,5.084302138117457E-6,4.2708588995483683E-4
252,297.2539569526106,5.124976339157593E-6,4.322108662939944E-4
253,297.19162764960765,5.165812588807449E-6,4.3737667888280187E-4
254,297.1284125218925,5.206810887067024E-6,4.425834897698689E-4
255,297.0641103522527,5.247971233936319E-6,4.478314610038052E-4
256,296.9988143693831,5.289293629415334E-6,4.5312075463322055E-4
257,296.93241122608936,5.330778073503798E-6,4.5845153270672435E-4
258,296.86500384403115,5.372424566202523E-6,4.6382395727292687E-4
259,296.7963247178444,5.414233107510697E-6,4.6923819038043757E-4
260,296.72752420461177,5.456203697428591E-6,4.7469439407786616E-4
261,296.6565883066433,5.498336335956204E-6,4.8019273041382236E-4
262,296.58377675261875,5.5406310230935916E-6,4.8573336143691595E-4
263,296.5092230854184,5.58308775884059E-6,4.913164491957565E-4
264,296.4343288167379,5.625706543197417E-6,4.96942155738954E-4
265,296.3591884796451,5.6684873761639635E-6,5.026106431151179E-4
266,296.28349147275856,5.711430257740067E-6,5.08322073372858E-4
267,296.2074653068657,5.7545351879261615E-6,5.140766085607842E-4
268,296.13143084829653,5.7978021667217045E-6,5.198744107275059E-4
269,296.0531799502451,5.841231194127238E-6,5.257156419216331E-4
270,295.97471470561624,5.884822270142004E-6,5.316004641917751E-4
271,295.89458058970064,5.9285753947670855E-6,5.375290395865422E-4
272,295.8129182228319,5.972490568001724E-6,5.435015301545439E-4
273,295.7276757968013,6.01656778984592E-6,5.495180979443898E-4
274,295.64287777874074,6.060807060299998E-6,5.555789050046898E-4
275,295.55673342033094,6.105208379363633E-6,5.616841133840535E-4
276,295.46922437096896,6.149771747037151E-6,5.678338851310906E-4
277,295.38121337148044,6.194497163320334E-6,5.740283822944109E-4
278,295.2909692659316,6.239384628213183E-6,5.802677669226241E-4
279,295.2007397518702,6.284434141715805E-6,5.865522010643399E-4
280,295.1084706313743,6.329645703828093E-6,5.92881846768168E-4
281,295.0152567024591,6.375019314550155E-6,5.992568660827182E-4
282,294.9211266576108,6.420554973881666E-6,6.056774210565998E-4
283,294.8239038370548,6.466252681823492E-6,6.121436737384233E-4
284,294.72495143403233,6.512112438374659E-6,6.18655786176798E-4
285,294.6248540337748,6.5581342435356E-6,6.252139204203336E-4
286,294.52267107975484,6.6043180973063146E-6,6.318182385176399E-4
287,294.41797370395415,6.650663999686695E-6,6.384689025173266E-4
288,294.31185379363933,6.6971719506767405E-6,6.451660744680033E-4
289,294.2015064964338,6.74384195027656E-6,6.519099164182799E-4
290,294.0909369158454,6.790673998486154E-6,6.587005904167661E-4
291,293.97770317980326,6.837668095305413E-6,6.655382585120715E-4
292,293.86331673291767,6.884824240734446E-6,6.724230827528059E-4
293,293.74715222128407,6.932142434773036E-6,6.79355225187579E-4
294,293.62911300251767,6.979622677421617E-6,6.863348478650006E-4
295,293.509472985402,7.027264968679321E-6,6.933621128336799E-4
296,293.3914040602576,7.075069308547666E-6,7.004371821422276E-4
297,293.2724906696268,7.123035697025135E-6,7.075602178392527E-4
298,293.152049320511,7.171164134112487E-6,7.147313819733652E-4
299,293.02476466789193,7.219454619809612E-6,7.219508365931748E-4
300,292.89559976410885,7.267907154116294E-6,7.292187437472911E-4
301,292.7693486483596,7.31652173703275E-6,7.365352654843238E-4
302,292.6384913460493,7.365298368559089E-6,7.439005638528829E-4
303,292.50340242389086,7.414237048694876E-6,7.513148009015778E-4
304,292.36919762921787,7.463337777440654E-6,7.587781386790185E-4
305,292.2361879145601,7.512600554795881E-6,7.662907392338143E-4
306,292.1022459108897,7.562025380761098E-6,7.738527646145754E-4
307,291.96565395100714,7.611612255335547E-6,7.81464376869911E-4
308,291.8254390295043,7.661361178520421E-6,7.891257380484314E-4
