#t,ESS,tempDiff,temp
0,200.00000000000065,0.0,0.0
1,199.99978232865098,6.0969740546912055E-6,6.0969740546912055E-6
2,199.99914467698338,6.033562035853375E-6,1.213053609054458E-5
3,199.99808540890027,6.070484386974027E-6,1.8201020477518607E-5
4,199.9966212279989,6.020491802746726E-6,2.4221512280265335E-5
5,199.99480786903197,5.9658084574147634E-6,3.01873207376801E-5
6,199.99263939926482,5.8787968013826565E-6,3.6066117539062755E-5
7,199.9900911682461,5.899765164603515E-6,4.196588270366627E-5
8,199.98717432644042,5.973596287304325E-6,4.79394789909706E-5
9,199.98382142843928,5.975614310229658E-6,5.391509330120026E-5
10,199.98008235926287,5.951180030477966E-6,5.9866273331678227E-5
11,199.97597643770095,5.958798966510573E-6,6.58250722981888E-5
12,199.97152099078744,5.99151551595538E-6,7.181658781414418E-5
13,199.9667012955315,6.020826495113784E-6,7.783741430925797E-5
14,199.96151281396843,6.012648435453382E-6,8.385006274471136E-5
15,199.95597208554761,6.00761820052875E-6,8.98576809452401E-5
16,199.95013788441017,5.959079721925449E-6,9.581676066716555E-5
17,199.94401209428642,5.943209774172976E-6,1.0175997044133852E-4
18,199.93736819292053,6.059810926891446E-6,1.0781978136822997E-4
19,199.93040439797613,6.001313634498822E-6,1.138210950027288E-4
20,199.923117046646,5.972065715308913E-6,1.1979316071803771E-4
21,199.9153312842715,6.029064675896021E-6,1.2582222539393373E-4
22,199.90721807265123,5.977798730809835E-6,1.3180002412474358E-4
23,199.89887963497623,5.9233309459204635E-6,1.3772335507066403E-4
24,199.89008070390676,5.979488944565633E-6,1.4370284401522967E-4
25,199.88093217934937,5.957437622826691E-6,1.4966028163805636E-4
26,199.87131293353568,6.010477531489787E-6,1.5567075916954613E-4
27,199.86143071596516,5.950614960495394E-6,1.6162137413004154E-4
28,199.85128452346555,5.866260520300839E-6,1.674876346503424E-4
29,199.84089851927038,5.784023212831157E-6,1.7327165786317354E-4
30,199.83016090807385,5.798043994303781E-6,1.7906970185747732E-4
31,199.8189826964178,5.82193452318527E-6,1.848916363806626E-4
32,199.80766254308367,5.7741057951096885E-6,1.9066574217577227E-4
33,199.79575580865216,5.836561535525416E-6,1.9650230371129768E-4
34,199.78348712425745,5.81903311257069E-6,2.0232133682386837E-4
35,199.77089014581406,5.826061915320001E-6,2.0814739873918837E-4
36,199.75796611349125,5.818773236755029E-6,2.139661719759434E-4
37,199.74475087997922,5.769317114304585E-6,2.1973548909024797E-4
38,199.73099545851946,5.8234534231438986E-6,2.2555894251339187E-4
39,199.71706524065024,5.762985140484284E-6,2.3132192765387615E-4
40,199.70266482640451,5.807450279708811E-6,2.3712937793358497E-4
41,199.68767968416802,5.860725687510395E-6,2.4299010362109535E-4
42,199.67215455837575,5.881696688266634E-6,2.48871800309362E-4
43,199.65636809946562,5.89152191525239E-6,2.5476332222461437E-4
44,199.64009677045985,5.917458477870746E-6,2.6068078070248514E-4
45,199.62355486003506,5.908219237288944E-6,2.665889999397741E-4
46,199.60650277069445,5.909294714036313E-6,2.7249829465381044E-4
47,199.58947766000279,5.91272606020769E-6,2.784110207140181E-4
48,199.5723173217953,5.868061155688477E-6,2.842790818697066E-4
49,199.5548984368402,5.8877628359026175E-6,2.9016684470560924E-4
50,199.53732895148568,5.8074018386345486E-6,2.959742465442438E-4
51,199.51907904434466,5.889267433215963E-6,3.0186351397745975E-4
52,199.50031132142604,5.9025386361625556E-6,3.077660526136223E-4
53,199.481225846796,5.828730697424794E-6,3.135947833110471E-4
54,199.46200036088888,5.853116169205539E-6,3.1944789948025264E-4
55,199.44266260574122,5.8654776345853175E-6,3.25313377114838E-4
56,199.42285792529307,5.904916842294413E-6,3.312182939571324E-4
57,199.40227489729025,5.9129279748970306E-6,3.371312219320294E-4
58,199.38124325106688,5.98062358455977E-6,3.431118455165892E-4
59,199.35966115567066,5.992802448886138E-6,3.491046479654753E-4
60,199.33770814496302,6.038646766686626E-6,3.5514329473216195E-4
61,199.3153720653087,6.022592199562303E-6,3.6116588693172423E-4
62,199.29255637140824,6.009301892068848E-6,3.671751888237931E-4
63,199.26912138654146,5.991045425233689E-6,3.731662342490268E-4
64,199.2453968644722,6.001658466430829E-6,3.791678927154576E-4
65,199.22137390383205,5.990562081779718E-6,3.8515845479723733E-4
66,199.19704248594422,6.007517616097103E-6,3.9116597241333444E-4
67,199.17223943887237,6.067539844681275E-6,3.972335122580157E-4
68,199.14690377260538,6.065087496843792E-6,4.032985997548595E-4
69,199.12141414781271,6.032781899328315E-6,4.0933138165418783E-4
70,199.09609931205262,6.008491137540258E-6,4.153398727917281E-4
71,199.0706832362372,5.986612496298317E-6,4.213264852880264E-4
72,199.04448277482808,6.074248696770382E-6,4.274007339847968E-4
73,199.01788702955636,6.0821612979204195E-6,4.334828952827172E-4
74,198.9908329085851,6.0927050929293785E-6,4.395756003756466E-4
75,198.96357089484366,6.097396930475349E-6,4.4567299730612195E-4
76,198.93630790243213,6.085220967810742E-6,4.517582182739327E-4
77,198.90886730199009,6.040620296375146E-6,4.5779883857030785E-4
78,198.881098695108,6.040699616918987E-6,4.6383953818722684E-4
79,198.85304718997907,6.091584341994746E-6,4.6993112252922156E-4
80,198.82474703725757,6.097028142607625E-6,4.760281506718292E-4
81,198.7958812106907,6.102433013405329E-6,4.821305836852345E-4
82,198.76698511871237,6.060589183113085E-6,4.8819117286834764E-4
83,198.7370817743534,6.19774557091804E-6,4.943889184392656E-4
84,198.70650317176865,6.302458368056453E-6,5.00691376807322E-4
85,198.67565531554882,6.319417460519393E-6,5.070107942678414E-4
86,198.6441771357024,6.407833783657211E-6,5.134186280514986E-4
87,198.61210598707115,6.418419865795661E-6,5.198370479172943E-4
88,198.58017512384393,6.327326827407187E-6,5.261643747447014E-4
89,198.54775048356987,6.305222124851028E-6,5.324695968695524E-4
90,198.51513155969008,6.303183391286873E-6,5.387727802608393E-4
91,198.48234062869403,6.318198326256542E-6,5.450909785870958E-4
92,198.44938362132518,6.3776179241198526E-6,5.514685965112157E-4
93,198.41624301544326,6.365940105508322E-6,5.57834536616724E-4
94,198.38299867329798,6.358013122708061E-6,5.641925497394321E-4
95,198.34954169393413,6.304083177279365E-6,5.704966329167114E-4
96,198.31624714607773,6.306144361784104E-6,5.768027772784955E-4
97,198.28301677056777,6.227393400105818E-6,5.830301706786014E-4
98,198.24989435281256,6.256654359633236E-6,5.892868250382346E-4
99,198.21709230890474,6.166375604789244E-6,5.954532006430239E-4
100,198.18403779907806,6.206150305459409E-6,6.016593509484833E-4
101,198.15067776946964,6.202710940733185E-6,6.078620618892165E-4
102,198.1176831162362,6.179311861947541E-6,6.140413737511641E-4
103,198.08483923898393,6.088190071787208E-6,6.201295638229513E-4
104,198.05138413687553,6.092654278327836E-6,6.262222181012792E-4
105,198.01719998133953,6.1011192988351044E-6,6.323233374001143E-4
106,197.98234906541077,6.185312537410399E-6,6.385086499375247E-4
107,197.94734015179733,6.200173512553196E-6,6.447088234500779E-4
108,197.9121485257861,6.108824294391144E-6,6.50817647744469E-4
109,197.8768437587152,6.112058230930472E-6,6.569297059753994E-4
110,197.84174300265977,6.1195856389994926E-6,6.630492916143989E-4
111,197.80682868037553,6.072613467623336E-6,6.691219050820223E-4
112,197.77119916580236,6.104125225035761E-6,6.752260303070581E-4
113,197.73550101360163,6.114165367985675E-6,6.813401956750438E-4
114,197.69941742399425,6.103050474709375E-6,6.874432461497532E-4
115,197.66273655570583,6.103595704991765E-6,6.93546841854745E-4
116,197.6263047042525,6.1081632946127625E-6,6.996550051493577E-4
117,197.58926975199708,6.068347204688993E-6,7.057233523540467E-4
118,197.55236462011732,6.031024580436608E-6,7.117543769344833E-4
119,197.51554386864666,5.947140867952193E-6,7.177015178024355E-4
120,197.4791785503451,5.930733541867445E-6,7.23632251344303E-4
121,197.44311851867812,5.927385565726794E-6,7.295596369100298E-4
122,197.4073594797599,5.897954938229106E-6,7.354575918482589E-4
123,197.37185240687649,5.873344040225229E-6,7.413309358884841E-4
124,197.336598172703,5.884897945185386E-6,7.472158338336695E-4
125,197.3015093240149,5.868570387886691E-6,7.530844042215562E-4
126,197.26607853412213,5.930298168747775E-6,7.590147023903039E-4
127,197.22970632007926,5.940764796200767E-6,7.649554671865046E-4
128,197.19269890744266,5.96075989654557E-6,7.709162270830502E-4
129,197.154927407326,5.991939492880041E-6,7.769081665759303E-4
130,197.11731514424187,5.986193402361668E-6,7.82894359978292E-4
131,197.08018472866218,5.90639371609492E-6,7.888007536943869E-4
132,197.04148351151275,6.020033451560165E-6,7.948207871459471E-4
133,197.002209780542,6.0061706684042025E-6,8.008269578143513E-4
134,196.96284080784443,5.9378306024156306E-6,8.06764788416767E-4
135,196.92311528072472,5.911597569977239E-6,8.126763859867442E-4
136,196.88285027911374,5.9471174856379115E-6,8.186235034723822E-4
137,196.84343833151897,5.9427769564771454E-6,8.245662804288593E-4
138,196.80452490293527,5.9629992287260915E-6,8.305292796575854E-4
139,196.7653173510724,6.026985420904698E-6,8.365562650784901E-4
140,196.7270348072907,5.922723150843647E-6,8.424789882293338E-4
141,196.68829817637254,5.946334958472575E-6,8.484253231878064E-4
142,196.64988536147897,5.987300012184088E-6,8.544126231999905E-4
143,196.61100941749405,5.995474428212847E-6,8.604080976282033E-4
144,196.57175574174988,6.019355895909479E-6,8.664274535241127E-4
145,196.53246509247737,5.990363584994467E-6,8.724178171091072E-4
146,196.49285993710345,6.047440638405326E-6,8.784652577475125E-4
147,196.45253905065064,6.068384661425857E-6,8.845336424089384E-4
148,196.41182418177917,5.990016619567768E-6,8.905236590285062E-4
149,196.3708979637534,6.0312433029077674E-6,8.965549023314139E-4
150,196.32895584844576,6.063337579396797E-6,9.026182399108107E-4
151,196.28688043270367,6.041929918315604E-6,9.086601698291263E-4
152,196.24510398436703,5.990011514281612E-6,9.146501813434079E-4
153,196.2029593129641,5.983608103925705E-6,9.206337894473336E-4
154,196.16100379487278,5.922189013543448E-6,9.26555978460877E-4
155,196.11901976705252,5.868562529328658E-6,9.324245409902057E-4
156,196.07661429406173,5.8738235436388474E-6,9.382983645338446E-4
157,196.0346763934165,5.8795547822038885E-6,9.441779193160485E-4
158,195.9931106657676,5.856693957751686E-6,9.500346132738001E-4
159,195.9510439065109,5.936129596616614E-6,9.559707428704168E-4
160,195.90823191792984,5.9235050743406365E-6,9.618942479447574E-4
161,195.86429843501895,5.945617589835098E-6,9.678398655345925E-4
162,195.82059210474486,5.878609075158309E-6,9.737184746097509E-4
163,195.77765154754806,5.8001753654611276E-6,9.79518649975212E-4
164,195.73496552345142,5.767633684151595E-6,9.852862836593637E-4
165,195.69284320292553,5.785712959700153E-6,9.910719966190638E-4
166,195.6511152345119,5.796121602591544E-6,9.968681182216553E-4
167,195.60793772877668,5.8894137639638625E-6,0.0010027575319856191
168,195.56431984104506,5.882914229355612E-6,0.0010086404462149748
169,195.52031438624712,6.0156822282676296E-6,0.0010146561284432424
170,195.47533004470435,6.075697666416221E-6,0.0010207318261096587
171,195.430347091737,6.0190033996339995E-6,0.0010267508295092927
172,195.38467357417161,6.050559126180293E-6,0.001032801388635473
173,195.3386449129084,6.017670999401862E-6,0.001038819059634875
174,195.29241087830093,5.9965583848123174E-6,0.0010448156180196872
175,195.2460369778686,5.889894106802368E-6,0.0010507055121264895
176,195.19984632060863,5.894408305968711E-6,0.0010565999204324582
177,195.15370136963142,5.88253945712128E-6,0.0010624824598895796
178,195.10764760259954,5.840977580851759E-6,0.0010683234374704313
179,195.06179643678908,5.808839591392631E-6,0.001074132277061824
180,195.01590460285837,5.794916909508475E-6,0.0010799271939713325
181,194.96936718074377,5.794423504360392E-6,0.001085721617475693
182,194.9223419548758,5.84022940681758E-6,0.0010915618468825105
183,194.87487089939157,5.849175709477365E-6,0.001097411022591988
184,194.82663346379152,5.893722514360625E-6,0.0011033047451063486
185,194.7794206269826,5.865351872088699E-6,0.0011091700969784373
186,194.73181105600202,5.839208165121857E-6,0.0011150093051435592
187,194.6831606930978,5.866579525411867E-6,0.001120875884668971
188,194.6336968994392,5.943682703649488E-6,0.0011268195673726205
189,194.58395736107013,5.950375388219772E-6,0.0011327699427608404
190,194.53414550212852,5.971330902957837E-6,0.0011387412736637982
191,194.48303845629917,5.966763179387156E-6,0.0011447080368431853
192,194.43099153975083,6.052251482045551E-6,0.001150760288325231
193,194.37887283881838,6.01115388213944E-6,0.0011567714422073703
194,194.32585915748894,6.021570062709186E-6,0.0011627930122700796
195,194.2734914413654,6.028381629407031E-6,0.0011688213938994866
196,194.22140176002023,5.935014051872902E-6,0.0011747564079513594
197,194.16989354859066,5.8968625150832E-6,0.0011806532704664427
198,194.11778418794916,5.890258309366695E-6,0.0011865435287758094
199,194.0666750884068,5.842719009992665E-6,0.001192386247785802
200,194.01489857021716,5.895418560655226E-6,0.0011982816663464572
201,193.96446884912658,5.877150173609361E-6,0.0012041588165200665
202,193.91384733674212,5.839017860547945E-6,0.0012099978343806145
203,193.8615270753769,5.943555305491359E-6,0.0012159413896861058
204,193.808561000413,5.965508187150496E-6,0.0012219068978732562
205,193.75571139108578,5.91877472801214E-6,0.0012278256726012684
206,193.70196288384543,5.9790492192386505E-6,0.001233804721820507
207,193.6487645024853,5.884810758956175E-6,0.0012396895325794632
208,193.596847332758,5.869895548886559E-6,0.0012455594281283496
209,193.54435107188738,5.903900836310389E-6,0.00125146332896466
210,193.49074587237604,5.981401277451461E-6,0.0012574447302421115
211,193.43633848809628,6.036833417007008E-6,0.0012634815636591184
212,193.38249930951804,6.016425050738858E-6,0.0012694979887098573
213,193.32875397003104,5.965262779573092E-6,0.0012754632514894305
214,193.27401562560917,5.998404134099498E-6,0.00128146165562353
215,193.2184263616138,5.994979191141099E-6,0.0012874566348146713
216,193.16313692089278,5.951100120549956E-6,0.0012934077349352213
217,193.10590506682794,6.008843432656858E-6,0.0012994165783678782
218,193.04829019772572,6.048496688775033E-6,0.0013054650750566532
219,192.99147371585565,5.993755837661167E-6,0.0013114588308943144
220,192.93310760081906,6.065825974780003E-6,0.0013175246568690945
221,192.87390067902453,6.047633368409153E-6,0.0013235722902375036
222,192.8151598758238,6.027849193034156E-6,0.0013296001394305377
223,192.75537431943167,6.041431754248241E-6,0.001335641571184786
224,192.69523446244054,6.134213300029195E-6,0.0013417757844848151
225,192.6351270236317,6.1417609621583704E-6,0.0013479175454469735
226,192.57503975463996,6.123201701016591E-6,0.0013540407471479901
227,192.51471286295393,6.118655506643339E-6,0.0013601594026546335
228,192.45484342035925,6.113993916089363E-6,0.0013662733965707228
229,192.39519657354066,6.0990022873073585E-6,0.0013723723988580301
230,192.3348750394066,6.075374940188601E-6,0.0013784477737982187
231,192.275464416609,6.053636709637418E-6,0.0013845014105078562
232,192.21473004455316,6.085940061002002E-6,0.0013905873505688582
233,192.15318073381852,6.1135051102432815E-6,0.0013967008556791014
234,192.09269694699722,6.068644513250453E-6,0.0014027695001923518
235,192.03156435758342,6.046940393407589E-6,0.0014088164405857595
236,191.9718060247963,6.003756995325859E-6,0.0014148201975810854
237,191.9115919534672,6.031776160953689E-6,0.0014208519737420391
238,191.8520436414051,6.05047641624255E-6,0.0014269024501582816
239,191.7930055889721,5.968174992654649E-6,0.0014328706251509362
240,191.73451966840713,5.97642246663717E-6,0.0014388470476175733
241,191.6750558369169,5.97688853417286E-6,0.0014448239361517462
242,191.61544133261648,5.997115660609332E-6,0.0014508210518123555
243,191.55587940639856,5.9748702915090135E-6,0.0014567959221038645
244,191.49598911728842,5.98700097211188E-6,0.0014627829230759765
245,191.43651392292372,5.94444142319375E-6,0.0014687273644991702
246,191.3778907397974,5.976254872291381E-6,0.0014747036193714616
247,191.319169054672,6.010214569853861E-6,0.0014807138339413156
248,191.260358226681,6.084542296028998E-6,0.0014867983762373446
249,191.20178433732303,6.045077347253461E-6,0.001492843453584598
250,191.14304398368446,5.960610094110329E-6,0.0014988040636787084
251,191.08402233513686,5.957789134761956E-6,0.0015047618528134703
252,191.02542331648453,5.971826193078173E-6,0.0015107336790065485
253,190.96638650206478,6.023427065406881E-6,0.0015167571060719553
254,190.90686554799882,6.071826538220828E-6,0.001522828932610176
255,190.84662698583543,6.059863524847629E-6,0.0015288887961350237
256,190.78606483403365,6.0335401837644435E-6,0.0015349223363187881
257,190.7248403853088,6.047208699613148E-6,0.0015409695450184012
258,190.661982471289,6.060197843314805E-6,0.001547029742861716
259,190.5991057487437,6.096077705490484E-6,0.0015531258205672064
260,190.53584205377362,6.125888556454872E-6,0.0015592517091236613
261,190.47301887277732,6.0987809911313445E-6,0.0015653504901147926
262,190.40935445658602,6.1744253659427546E-6,0.0015715249154807354
263,190.3457073039484,6.159012419711249E-6,0.0015776839279004467
264,190.28127486509382,6.171337951190742E-6,0.0015838552658516375
265,190.21658724314221,6.142634379152088E-6,0.0015899979002307895
266,190.15188667069614,6.102538595212268E-6,0.0015961004388260018
267,190.08642615786974,6.100722158047152E-6,0.001602201160984049
268,190.0220882405019,6.0254329222513246E-6,0.0016082265939063004
269,189.9571226168682,6.004171554455591E-6,0.001614230765460756
270,189.89043441052615,6.068144172399183E-6,0.001620298909633155
271,189.82318620717305,6.0407349991131204E-6,0.0016263396446322682
272,189.75594590861638,6.0219016258376505E-6,0.001632361546258106
273,189.68686511342474,6.120354308580081E-6,0.0016384819005666861
274,189.61728978003322,6.187747111659646E-6,0.0016446696476783457
275,189.54689162982166,6.1658683333464245E-6,0.0016508355160116922
276,189.47621739626922,6.0971723734724854E-6,0.0016569326883851647
277,189.40406320427175,6.21273028891641E-6,0.001663145418674081
278,189.33329961550484,6.143170169597762E-6,0.0016692885888436788
279,189.26264312179697,6.1015444370595245E-6,0.0016753901332807384
280,189.1901262967981,6.178173738526743E-6,0.001681568307019265
281,189.11561062514588,6.234962870848788E-6,0.0016878032698901138
282,189.04108242003096,6.233065006518972E-6,0.0016940363348966329
283,188.96533399852515,6.293022523669019E-6,0.001700329357420302
284,188.8888288957489,6.337631796391764E-6,0.0017066669892166937
285,188.81175449672423,6.31048908701649E-6,0.0017129774783037103
286,188.73459165615682,6.247491141836369E-6,0.0017192249694455467
287,188.6563010459241,6.294518989205759E-6,0.0017255194884347525
288,188.58007003199555,6.273306933387541E-6,0.00173179279536814
289,188.50315237592048,6.244976759856567E-6,0.0017380377721279965
290,188.42573193023597,6.281484256845467E-6,0.001744319256384842
291,188.34768954930777,6.318934101939777E-6,0.0017506381904867818
292,188.26934520865066,6.343989767950746E-6,0.0017569821802547326
293,188.1917321358716,6.327424441826882E-6,0.0017633096046965595
294,188.11277553857536,6.410026687356818E-6,0.0017697196313839164
295,188.03317706804998,6.440611703403985E-6,0.0017761602430873204
296,187.95249246736552,6.464019946743049E-6,0.0017826242630340635
297,187.87036614188082,6.574935121771623E-6,0.001789199198155835
298,187.79011241548213,6.5492388367480035E-6,0.001795748436992583
299,187.71153053423276,6.508485528331983E-6,0.001802256922520915
300,187.63372675183365,6.485741424995246E-6,0.0018087426639459103
301,187.55635107487603,6.513837134810153E-6,0.0018152565010807204
302,187.48027709872946,6.425908445217089E-6,0.0018216824095259375
303,187.40484044838462,6.457297427588454E-6,0.001828139706953526
304,187.3288196827625,6.403282185152746E-6,0.0018345429891386787
305,187.2518273850268,6.355275132753648E-6,0.0018408982642714323
306,187.17472442802844,6.3573363337708115E-6,0.001847255600605203
307,187.09754916238435,6.305942638010382E-6,0.0018535615432432135
