#t,ESS,tempDiff,temp
0,200.00000000000065,0.0,0.0
1,199.9999999999999,5.507068873606161E-13,5.507068873606161E-13
2,199.99999999999991,3.854948211524313E-12,4.405655098884929E-12
3,199.99999999999983,1.0463430859851705E-11,1.4869085958736633E-11
4,200.0,2.03761548323428E-11,3.524524079107943E-11
5,200.0000000000002,3.3593120128997584E-11,6.883836092007702E-11
6,199.9999999999999,5.011432674981605E-11,1.1895268766989307E-10
7,200.00000000000006,6.993977469479824E-11,1.888924623646913E-10
8,199.99999999999972,9.306946396394415E-11,2.8196192632863546E-10
9,199.99999999999974,1.1950339455725367E-10,4.0146532088588913E-10
10,199.9999999999994,1.49241566474727E-10,5.507068873606161E-10
11,199.9999999999997,1.8228397971636386E-10,7.3299086707698E-10
12,199.99999999999886,2.1863063428216453E-10,9.516215013591445E-10
13,199.99999999999798,2.582815301721293E-10,1.2099030315312738E-9
14,199.99999999999716,3.0123666738625665E-10,1.5111396989175305E-9
15,199.99999999999528,3.4749604592454923E-10,1.8586357448420797E-9
16,199.99999999999295,3.9705966578700396E-10,2.2556954106290837E-9
17,199.99999999999005,4.4992752697362394E-10,2.7056229376027076E-9
18,199.99999999998545,5.060996294844054E-10,3.211722567087113E-9
19,199.99999999997985,5.655759733193534E-10,3.7772985404064665E-9
20,199.99999999997286,6.283565584784625E-10,4.405655098884929E-9
21,199.99999999996308,6.944413849617377E-10,5.100096483846667E-9
22,199.99999999995072,7.638304527691732E-10,5.86392693661584E-9
23,199.99999999993577,8.365237619007772E-10,6.700450698516617E-9
24,199.99999999991738,9.12521312356539E-10,7.612972010873156E-9
25,199.9999999998945,9.91823104136472E-10,8.604795115009628E-9
26,199.99999999986736,1.0744291372405626E-9,9.67922425225019E-9
27,199.99999999983632,1.1603394116688144E-9,1.0839563663919005E-8
28,199.99999999979843,1.2495539274212388E-9,1.2089117591340244E-8
29,199.99999999975395,1.3420726844978244E-9,1.3431190275838068E-8
30,199.99999999970092,1.4378956828985694E-9,1.4869085958736638E-8
31,199.99999999963984,1.537022922623474E-9,1.6406108881360112E-8
32,199.9999999995685,1.6394544036725578E-9,1.804556328503267E-8
33,199.99999999948753,1.7451901260457928E-9,1.9790753411078462E-8
34,199.99999999939575,1.8542300897431988E-9,2.164498350082166E-8
35,199.9999999992852,1.9665742947647494E-9,2.361155779558641E-8
36,199.99999999915968,2.082222741110494E-9,2.5693780536696905E-8
37,199.99999999901985,2.2011754287803836E-9,2.7894955965477288E-8
38,199.99999999885893,2.323432357774444E-9,3.021838832325173E-8
39,199.99999999867472,2.448993528092649E-9,3.266738185134438E-8
40,199.9999999984712,2.5778589397350514E-9,3.524524079107943E-8
41,199.9999999982384,2.710028592701595E-9,3.795526938378103E-8
42,199.99999999796864,2.8455024869923066E-9,4.0800771870773334E-8
43,199.9999999976527,2.984280622607166E-9,4.37850524933805E-8
44,199.9999999972923,3.1263629995462195E-9,4.691141549292672E-8
45,199.9999999968726,3.2717496178094276E-9,5.018316511073615E-8
46,199.9999999964165,3.42044047739679E-9,5.360360558813294E-8
47,199.99999999592083,3.5724355783083005E-9,5.717604116644124E-8
48,199.99999999536394,3.727734920544012E-9,6.090377608698525E-8
49,199.99999999474278,3.886338504103858E-9,6.479011459108911E-8
50,199.9999999940354,4.0482463289879176E-9,6.883836092007703E-8
51,199.99999999322395,4.213458395196053E-9,7.305181931527308E-8
52,199.99999999229863,4.381974702728448E-9,7.743379401800153E-8
53,199.9999999912506,4.5537952515849184E-9,8.198758926958644E-8
54,199.99999999005016,4.728920041765596E-9,8.671650931135204E-8
55,199.99999998877695,4.907349073270482E-9,9.162385838462252E-8
56,199.99999998739733,5.089082346099429E-9,9.671294073072195E-8
57,199.99999998595786,5.274119860252597E-9,1.0198706059097455E-7
58,199.9999999843717,5.4624616157299985E-9,1.0744952220670455E-7
59,199.99999998262393,5.654107612531422E-9,1.1310362981923597E-7
60,199.99999998068438,5.849057850657133E-9,1.189526876698931E-7
61,199.99999997867954,6.047312330106919E-9,1.2500000000000002E-7
62,199.9999999765651,6.2488710508808726E-9,1.312488710508809E-7
63,199.99999997429265,6.453734012979113E-9,1.3770260506386E-7
64,199.99999997180984,6.661901216401349E-9,1.4436450628026136E-7
65,199.9999999691323,6.873372661147819E-9,1.5123787894140917E-7
66,199.99999996628293,7.088148347218523E-9,1.583260272886277E-7
67,199.99999996335885,7.3062282746132755E-9,1.6563225556324097E-7
68,199.99999996028384,7.527612443332315E-9,1.731598680065733E-7
69,199.99999995691678,7.75230085337535E-9,1.8091216885994864E-7
70,199.99999995318686,7.980293504742645E-9,1.8889246236469128E-7
71,199.99999994913352,8.211590397434201E-9,1.9710405276212548E-7
72,199.99999994461209,8.446191531449752E-9,2.0555024429357524E-7
73,199.99999994001524,8.684096906789511E-9,2.1423434120036475E-7
74,199.99999993512478,8.925306523453557E-9,2.231596477238183E-7
75,199.9999999298298,9.169820381441598E-9,2.323294681052599E-7
76,199.99999992417767,9.417638480753953E-9,2.4174710658601386E-7
77,199.99999991813274,9.668760821390304E-9,2.5141586740740416E-7
78,199.9999999115199,9.923187403350888E-9,2.6133905481075505E-7
79,199.99999990445863,1.0180918226635786E-8,2.7151997303739083E-7
80,199.99999989641358,1.0441953291244626E-8,2.8196192632863546E-7
81,199.99999988770804,1.0706292597177674E-8,2.9266821892581313E-7
82,199.99999987826303,1.0973936144435088E-8,3.036421550702482E-7
83,199.99999986850668,1.1244883933016339E-8,3.1488703900326456E-7
84,199.9999998579148,1.1519135962922115E-8,3.264061749661867E-7
85,199.99999984627863,1.1796692234151674E-8,3.3820286720033835E-7
86,199.9999998339411,1.2077552746705654E-8,3.50280419947044E-7
87,199.99999982114872,1.236171750058384E-8,3.6264213744762784E-7
88,199.9999998083701,1.2649186495785916E-8,3.7529132394341376E-7
89,199.99999979548994,1.2939959732312359E-8,3.882312836757261E-7
90,199.9999997823058,1.3234037210163062E-8,4.014653208858892E-7
91,199.99999976796516,1.3531418929337602E-8,4.149967398152268E-7
92,199.99999975286525,1.383210488983672E-8,4.288288447050635E-7
93,199.99999973709993,1.4136095091659568E-8,4.4296493979672307E-7
94,199.99999972015758,1.4443389534806836E-8,4.574083293315299E-7
95,199.99999970239114,1.4753988219278365E-8,4.7216231755080827E-7
96,199.9999996838332,1.506789114507373E-8,4.87230208695882E-7
97,199.99999966416684,1.5385098312193514E-8,5.026153070080755E-7
98,199.99999964332176,1.5705609720637347E-8,5.183209167287129E-7
99,199.9999996212815,1.6029425370405758E-8,5.343503420991186E-7
100,199.99999959754373,1.6356545261497582E-8,5.507068873606162E-7
101,199.99999957264941,1.6686969393913985E-8,5.673938567545302E-7
102,199.99999954615132,1.7020697767654436E-8,5.844145545221846E-7
103,199.9999995174611,1.7357730382719147E-8,6.017722849049038E-7
104,199.9999994865953,1.7698067239108437E-8,6.194703521440122E-7
105,199.99999945396857,1.804170833682114E-8,6.375120604808333E-7
106,199.99999942208098,1.8388653675858208E-8,6.559007141566916E-7
107,199.9999993888577,1.8738903256219643E-8,6.746396174129112E-7
108,199.9999993551811,1.9092457077905127E-8,6.937320744908163E-7
109,199.99999932070878,1.9449315140914766E-8,7.131813896317311E-7
110,199.9999992855898,1.9809477445249088E-8,7.329908670769802E-7
111,199.99999924891432,2.0172943990906612E-8,7.531638110678868E-7
112,199.99999921054123,2.053971477788882E-8,7.737035258457756E-7
113,199.9999991698778,2.090978980619518E-8,7.946133156519708E-7
114,199.99999912796233,2.1283169075825592E-8,8.158964847277964E-7
115,199.9999990838034,2.1659852586780793E-8,8.375563373145772E-7
116,199.99999903768742,2.2039840339059195E-8,8.595961776536364E-7
117,199.9999989900492,2.242313233266207E-8,8.820193099862984E-7
118,199.99999894073272,2.280972856758931E-8,9.048290385538877E-7
119,199.99999888971104,2.3199629043840493E-8,9.280286675977282E-7
120,199.9999988361813,2.3592833761416572E-8,9.516215013591448E-7
121,199.99999877994657,2.3989342720315747E-8,9.756108440794606E-7
122,199.99999872452543,2.4389155920539605E-8,1.0000000000000002E-6
123,199.99999866674295,2.47922733620873E-8,1.0247922733620875E-6
124,199.99999861166546,2.519869504495968E-8,1.0499909684070471E-6
125,199.9999985582165,2.5608420969155896E-8,1.075599389376203E-6
126,199.999998504922,2.6021451134677008E-8,1.10162084051088E-6
127,199.99999844887475,2.6437785541520898E-8,1.128058626052401E-6
128,199.99999839002263,2.6857424189689895E-8,1.1549160502420908E-6
129,199.99999832662084,2.728036707918273E-8,1.1821964173212736E-6
130,199.99999825954444,2.7706614209999823E-8,1.2099030315312734E-6
131,199.99999818937627,2.8136165582141602E-8,1.238039197113415E-6
132,199.999998117294,2.8569021195606582E-8,1.2666082183090216E-6
133,199.9999980446857,2.9005181050396246E-8,1.2956133993594178E-6
134,199.99999797482747,2.9444645146509958E-8,1.3250580445059278E-6
135,199.99999790004466,2.988741348394772E-8,1.3549454579898755E-6
136,199.99999782030653,3.03334860627108E-8,1.3852789440525863E-6
137,199.9999977388965,3.0782862882796234E-8,1.4160618069353825E-6
138,199.99999765458026,3.1235543944206565E-8,1.447297350879589E-6
139,199.9999975719573,3.169152924694137E-8,1.4789888801265305E-6
140,199.99999748710766,3.2150818790999795E-8,1.5111396989175303E-6
141,199.9999973947771,3.261341257638312E-8,1.5437531114939134E-6
142,199.9999973014408,3.307931060309049E-8,1.5768324220970039E-6
143,199.99999720710863,3.3548512871121275E-8,1.6103809349681251E-6
144,199.999997108685,3.4021019380476744E-8,1.6444019543486019E-6
145,199.99999700604076,3.449683013115626E-8,1.6788987844797582E-6
146,199.99999689979384,3.497594512315983E-8,1.713874729602918E-6
147,199.99999678881005,3.5458364356488714E-8,1.7493330939594067E-6
148,199.99999667724032,3.594408783113974E-8,1.7852771817905464E-6
149,199.9999965647239,3.64331155471163E-8,1.8217102973376627E-6
150,199.99999645175777,3.6925447504416486E-8,1.8586357448420792E-6
151,199.99999632802653,3.742108370304114E-8,1.8960568285451204E-6
152,199.9999961993053,3.792002414299048E-8,1.933976852688111E-6
153,199.99999606745558,3.842226882426281E-8,1.9723991215123737E-6
154,199.99999593161738,3.8927817746859616E-8,2.0113269392592333E-6
155,199.9999957925017,3.943667091078089E-8,2.050763610170014E-6
156,199.99999564672328,3.994882831602621E-8,2.0907124384860404E-6
157,199.99999549664557,4.046428996259601E-8,2.1311767284486364E-6
158,199.99999534317413,4.0983055850490276E-8,2.1721597842991267E-6
159,199.99999518023293,4.150512597970732E-8,2.213664910278834E-6
160,199.99999501335773,4.2030500350249686E-8,2.2556954106290837E-6
161,199.99999484705228,4.255917896211525E-8,2.298254589591199E-6
162,199.9999946754914,4.309116181530614E-8,2.341345751406505E-6
163,199.99999448777257,4.3626448909821495E-8,2.3849722003163266E-6
164,199.99999429996566,4.416504024565921E-8,2.4291372405619858E-6
165,199.9999941029734,4.4706935822821814E-8,2.4738441763848076E-6
166,199.99999390591805,4.5252135641308894E-8,2.5190963120261165E-6
167,199.99999369467866,4.5800639701120446E-8,2.564896951727237E-6
168,199.99999347513048,4.635244800225647E-8,2.6112493997294934E-6
169,199.99999325175426,4.690756054471485E-8,2.6581569602742082E-6
170,199.99999301892288,4.7465977328498547E-8,2.7056229376027068E-6
171,199.99999277244586,4.8027698353606717E-8,2.7536506359563135E-6
172,199.99999251790734,4.859272362003851E-8,2.802243359576352E-6
173,199.99999224660903,4.9161053127794355E-8,2.8514044127041464E-6
174,199.99999197105274,4.9732686876876365E-8,2.9011370995810227E-6
175,199.99999169510497,5.030762486727946E-8,2.951444724448302E-6
176,199.99999139903807,5.088586709900787E-8,3.00233059154731E-6
177,199.9999910833239,5.146741357206076E-8,3.053798005119371E-6
178,199.99999076599408,5.2052264286438114E-8,3.105850269405809E-6
179,199.99999044143138,5.2640419242139944E-8,3.158490688647949E-6
180,199.99999011019875,5.323187843916455E-8,3.2117225670871134E-6
181,199.9999897709988,5.382664187751363E-8,3.265549208964627E-6
182,199.99998942806621,5.442470955718718E-8,3.3199739185218142E-6
183,199.99998909226005,5.5026081478185206E-8,3.3749999999999995E-6
184,199.99998875308046,5.563075764050855E-8,3.430630757640508E-6
185,199.99998840005227,5.62387380441534E-8,3.4868694956846614E-6
186,199.99998803697088,5.6850022689123146E-8,3.5437195183737845E-6
187,199.99998767183752,5.746461157541821E-8,3.6011841299492028E-6
188,199.9999872927926,5.808250470303648E-8,3.6592666346522392E-6
189,199.99998691401638,5.870370207197922E-8,3.7179703367242185E-6
190,199.99998651144983,5.93282036822477E-8,3.777298540406466E-6
191,199.9999861022496,5.995600953383769E-8,3.837254549940304E-6
192,199.99998569758273,6.058711962675215E-8,3.897841669567056E-6
193,199.99998528196207,6.122153396099235E-8,3.959063203528048E-6
194,199.9999848850106,6.185925253655576E-8,4.020922456064604E-6
195,199.999984482703,6.250027535344321E-8,4.083422731418047E-6
196,199.9999840515326,6.314460241165556E-8,4.146567333829703E-6
197,199.99998362552287,6.379223371119111E-8,4.210359567540894E-6
198,199.99998318914544,6.444316925205495E-8,4.274802736792949E-6
199,199.9999827273228,6.509740903423606E-8,4.339900145827185E-6
200,199.99998227319762,6.57549530577446E-8,4.40565509888493E-6
201,199.9999818504589,6.64158013225772E-8,4.472070900207507E-6
202,199.99998140509268,6.707995382873468E-8,4.5391508540362415E-6
203,199.99998096142033,6.774741057621537E-8,4.606898264612457E-6
204,199.99998051898507,6.841817156502011E-8,4.675316436177477E-6
205,199.99998006183344,6.909223679514975E-8,4.744408672972627E-6
206,199.999979600406,6.976960626660343E-8,4.81417827923923E-6
207,199.99997912296558,7.045027997938201E-8,4.884628559218612E-6
208,199.99997861824517,7.113425793348548E-8,4.955762817152098E-6
209,199.99997809202006,7.182154012890962E-8,5.027584357281007E-6
210,199.99997754394266,7.25121265656595E-8,5.100096483846667E-6
211,199.9999769901063,7.320601724373342E-8,5.1733025010904E-6
212,199.999976416677,7.390321216313224E-8,5.247205713253532E-6
213,199.99997580376217,7.460371132385511E-8,5.3218094245773875E-6
214,199.9999751959559,7.530751472590203E-8,5.3971169393032896E-6
215,199.99997458500835,7.6014622369273E-8,5.4731315616725626E-6
216,199.99997391852844,7.672503425396802E-8,5.549856595926531E-6
217,199.99997324391586,7.743875037998708E-8,5.627295346306518E-6
218,199.9999724930637,7.815577074733104E-8,5.705451117053849E-6
219,199.99997173150686,7.887609535600244E-8,5.784327212409851E-6
220,199.99997094013472,7.959972420599026E-8,5.863926936615841E-6
221,199.9999701893686,8.032665729730637E-8,5.944253593913148E-6
222,199.9999694164297,8.105689462994652E-8,6.025310488543094E-6
223,199.99996862941882,8.179043620391157E-8,6.107100924747006E-6
224,199.99996779843676,8.252728201919898E-8,6.189628206766205E-6
225,199.99996697296586,8.326743207581213E-8,6.272895638842017E-6
226,199.999966118001,8.401088637374932E-8,6.356906525215766E-6
227,199.999965238874,8.475764491300972E-8,6.441664170128776E-6
228,199.99996433924542,8.550770769359502E-8,6.527171877822371E-6
229,199.99996343835406,8.62610747155052E-8,6.613432952537876E-6
230,199.99996250741026,8.701774597874114E-8,6.700450698516617E-6
231,199.99996156890762,8.777772148329604E-8,6.7882284199999134E-6
232,199.99996058189254,8.854100122917752E-8,6.876769421229091E-6
233,199.99995950341625,8.930758521638306E-8,6.966077006445474E-6
234,199.99995842339925,9.00774734449135E-8,7.0561544798903875E-6
235,199.9999573619488,9.085066591476797E-8,7.1470051458051555E-6
236,199.9999562851197,9.16271626259465E-8,7.238632308431102E-6
237,199.99995515219422,9.240696357844824E-8,7.33103927200955E-6
238,199.99995399252782,9.319006877227571E-8,7.424229340781826E-6
239,199.99995283173976,9.397647820742723E-8,7.518205818989253E-6
240,199.99995160966088,9.476619188390534E-8,7.6129720108731585E-6
241,199.99995033532667,9.555920980170158E-8,7.70853122067486E-6
242,199.9999490366304,9.63555319608244E-8,7.804886752635684E-6
243,199.99994775272393,9.715515836127127E-8,7.902041910996956E-6
244,199.9999464074014,9.795808900304557E-8,8.000000000000001E-6
245,199.99994497028376,9.876432388613885E-8,8.09876432388614E-6
246,199.99994353356962,9.957386301055956E-8,8.1983381868967E-6
247,199.99994206252748,1.0038670637630432E-7,8.298724893273004E-6
248,199.99994058662216,1.0120285398337312E-7,8.399927747256377E-6
249,199.99993909646327,1.0202230583176598E-7,8.501950053088143E-6
250,199.99993763202443,1.0284506192148119E-7,8.604795115009624E-6
251,199.9999360979489,1.0367112225252722E-7,8.708466237262152E-6
252,199.99993457308827,1.0450048682488884E-7,8.81296672408704E-6
253,199.99993297524367,1.053331556385762E-7,8.918299879725617E-6
254,199.99993133382875,1.0616912869359099E-7,9.024469008419208E-6
255,199.99992958772324,1.0700840598992813E-7,9.131477414409136E-6
256,199.999927795111,1.0785098752759102E-7,9.239328401936727E-6
257,199.99992585154763,1.0869687330657458E-7,9.348025275243301E-6
258,199.99992379958434,1.0954606332688726E-7,9.457571338570189E-6
259,199.99992178230448,1.103985575885189E-7,9.567969896158707E-6
260,199.99991985729514,1.1125435609147968E-7,9.679224252250187E-6
261,199.99991786950923,1.1211345883576112E-7,9.791337711085948E-6
262,199.99991580849215,1.1297586582137169E-7,9.90431357690732E-6
263,199.99991367677163,1.1384157704829953E-7,1.001815515395562E-5
264,199.99991150152727,1.1471059251655312E-7,1.0132865746472173E-5
265,199.99990932430438,1.1558291222613245E-7,1.0248448658698305E-5
266,199.99990713704574,1.1645853617703752E-7,1.0364907194875343E-5
267,199.99990483898767,1.1733746436926325E-7,1.0482244659244606E-5
268,199.9999024251914,1.1821969680281642E-7,1.0600464356047422E-5
269,199.99989994716196,1.1910523347769024E-7,1.0719569589525113E-5
270,199.99989751200468,1.199940743938915E-7,1.0839563663919004E-5
271,199.9998948666144,1.2088621955141682E-7,1.096044988347042E-5
272,199.9998921738022,1.2178166895026957E-7,1.108223155242069E-5
273,199.99988946893023,1.226804225904362E-7,1.1204911975011127E-5
274,199.99988662495127,1.2358248047193367E-7,1.132849445548306E-5
275,199.9998837628018,1.2448784259475348E-7,1.1452982298077814E-5
276,199.9998808528797,1.2539650895889904E-7,1.1578378807036713E-5
277,199.99987793684713,1.2630847956436864E-7,1.1704687286601081E-5
278,199.99987502173454,1.272237544111623E-7,1.1831911041012244E-5
279,199.9998721362035,1.281423334992783E-7,1.1960053374511522E-5
280,199.99986916911467,1.2906421682872005E-7,1.2089117591340242E-5
281,199.99986617020903,1.2998940439948755E-7,1.221910699573973E-5
282,199.9998630704123,1.309178962115774E-7,1.2350024891951307E-5
283,199.99986005566504,1.3184969226499638E-7,1.2481874584216303E-5
284,199.9998569288731,1.3278479255972754E-7,1.2614659376776031E-5
285,199.99985368599306,1.3372319709579293E-7,1.2748382573871824E-5
286,199.9998504237136,1.3466490587317728E-7,1.2883047479745001E-5
287,199.99984714819325,1.3560991889188906E-7,1.301865739863689E-5
288,199.99984387996267,1.365582361519249E-7,1.3155215634788815E-5
289,199.9998405660507,1.3750985765328308E-7,1.3292725492442098E-5
290,199.99983712591566,1.3846478339596701E-7,1.3431190275838065E-5
291,199.99983370649403,1.394230133799733E-7,1.3570613289218039E-5
292,199.99983022667013,1.4038454760530533E-7,1.3710997836823344E-5
293,199.99982671644486,1.413493860719614E-7,1.3852347222895305E-5
294,199.99982318121045,1.423175287799483E-7,1.3994664751675254E-5
295,199.99981960084736,1.432889757292457E-7,1.41379537274045E-5
296,199.9998160246149,1.4426372691987223E-7,1.4282217454324372E-5
297,199.9998124337309,1.452417823518262E-7,1.4427459236676198E-5
298,199.99980878022924,1.4622314202510421E-7,1.4573682378701302E-5
299,199.99980507531683,1.472078059397029E-7,1.4720890184641005E-5
300,199.99980142154183,1.48195774095629E-7,1.4869085958736634E-5
301,199.99979769962476,1.4918704649287747E-7,1.5018273005229511E-5
302,199.99979386116607,1.5018162313145168E-7,1.5168454628360963E-5
303,199.99978989607112,1.5117950401134824E-7,1.531963413237231E-5
304,199.9997858750743,1.5218068913257563E-7,1.5471814821504887E-5
305,199.99978176479158,1.531851784951169E-7,1.5625000000000004E-5
306,199.9997776922801,1.541929720989856E-7,1.577919297209899E-5
