#t,ESS,tempDiff,temp
0,999.9999999999848,0.0,0.0
1,999.9900000000007,2.830474774348049E-5,2.830474774348049E-5
2,999.9604270552013,2.813122490211596E-5,5.6435972645596454E-5
3,999.9115929071386,2.799724846979123E-5,8.443322111538769E-5
4,999.8441831285925,2.789184314181885E-5,1.1232506425720654E-4
5,999.7587567532727,2.785246811540087E-5,1.401775323726074E-4
6,999.6555944296387,2.767189650961864E-5,1.6784942888222604E-4
7,999.535295239666,2.773005266871426E-5,1.955794815509403E-4
8,999.3978323657902,2.7754055027464467E-5,2.2333353657840477E-4
9,999.2428589983277,2.7668928959024982E-5,2.5100246553742974E-4
10,999.0705251846102,2.7674457142738238E-5,2.78676922680168E-4
11,998.8810960793851,2.7419769080970176E-5,3.060966917611382E-4
12,998.6760585234783,2.6961854341354106E-5,3.330585461024923E-4
13,998.4554407310768,2.6802957582657295E-5,3.598615036851496E-4
14,998.2188618920881,2.714881426127187E-5,3.8701031794642144E-4
15,997.9676343987301,2.7139939659221034E-5,4.1415025760564245E-4
16,997.6994871324082,2.691659894366912E-5,4.4106685654931156E-4
17,997.4162661230517,2.6664752185143213E-5,4.6773160873445475E-4
18,997.1195878017306,2.650075769894515E-5,4.942323664334E-4
19,996.8103340850835,2.6529659619654107E-5,5.207620260530541E-4
20,996.4867517252671,2.6473506460393526E-5,5.472355325134476E-4
21,996.1501642734913,2.662685274864947E-5,5.73862385262097E-4
22,995.8000517583874,2.664502702980937E-5,6.005074122919064E-4
23,995.4361778627141,2.6552737099873027E-5,6.270601493917794E-4
24,995.0563316281264,2.6444704991772767E-5,6.535048543835521E-4
25,994.6649898862747,2.637969942721821E-5,6.798845538107703E-4
26,994.261448214214,2.6350386200377413E-5,7.062349400111477E-4
27,993.8465781590413,2.6448253458942577E-5,7.326831934700903E-4
28,993.4193128212826,2.6077565431067833E-5,7.587607589011582E-4
29,992.981927205429,2.5791457194978512E-5,7.845522160961367E-4
30,992.530541043658,2.5719537849979976E-5,8.102717539461167E-4
31,992.0698613693138,2.583395677967453E-5,8.361057107257912E-4
32,991.59796010695,2.5904282295782166E-5,8.620099930215733E-4
33,991.1153127853754,2.582424909956171E-5,8.878342421211351E-4
34,990.6206914182665,2.602687209649837E-5,9.138611142176335E-4
35,990.1155028870817,2.6034156229805404E-5,9.398952704474389E-4
36,989.6002546359343,2.6155820124017488E-5,9.660510905714564E-4
37,989.0753265013385,2.6357150540639482E-5,9.924082411120957E-4
38,988.5381360645614,2.623128439639331E-5,0.0010186395255084892
39,987.9922424592685,2.6336119776076E-5,0.0010449756452845652
40,987.4378544354544,2.659490173048728E-5,0.0010715705470150526
41,986.8742251974934,2.6519503216205838E-5,0.0010980900502312585
42,986.2986863011535,2.6755540650440142E-5,0.0011248455908816986
43,985.7149406301437,2.6810565572978088E-5,0.0011516561564546767
44,985.1195210315636,2.673401671940876E-5,0.0011783901731740854
45,984.512386239783,2.6892008788792478E-5,0.001205282181962878
46,983.8978974423757,2.6861297204704416E-5,0.0012321434791675823
47,983.2742972260473,2.6787308410870636E-5,0.0012589307875784529
48,982.6402402455063,2.663357795457221E-5,0.0012855643655330252
49,981.9995145335961,2.6750593154665704E-5,0.0013123149586876908
50,981.3534508196092,2.6893443470668596E-5,0.0013392084021583595
51,980.7020772163117,2.6704712013724266E-5,0.0013659131141720837
52,980.0413915196227,2.6614556135686537E-5,0.0013925276703077702
53,979.3712324927168,2.638421161080196E-5,0.0014189118819185722
54,978.6932745188495,2.6431948734146303E-5,0.0014453438306527185
55,978.0043603973315,2.655251858903095E-5,0.0014718963492417493
56,977.3015729669944,2.597970804677486E-5,0.0014978760572885242
57,976.5913587213249,2.5987144626740956E-5,0.0015238632019152652
58,975.871074855404,2.5910773000384728E-5,0.00154977397491565
59,975.1392905134055,2.5955439265111205E-5,0.0015757294141807612
60,974.4043537025492,2.5921908812158858E-5,0.0016016513229929201
61,973.6638038427193,2.6122268764879033E-5,0.0016277735917577991
62,972.9182591677412,2.6177754342575922E-5,0.001653951346100375
63,972.1668378487818,2.6092132023885165E-5,0.0016800434781242602
64,971.4106620410699,2.602335565986356E-5,0.0017060668337841238
65,970.6540825574673,2.6022940122664253E-5,0.001732089773906788
66,969.9010066307758,2.5854479551923023E-5,0.001757944253458711
67,969.1408952946026,2.5737276341750187E-5,0.0017836815298004612
68,968.3679438576974,2.558374976670115E-5,0.0018092652795671624
69,967.5910516164354,2.5861123895409525E-5,0.001835126403462572
70,966.8094941534033,2.5644262327157095E-5,0.0018607706657897292
71,966.0174330487295,2.5545421969472863E-5,0.0018863160877592021
72,965.2207131645152,2.56159099795861E-5,0.0019119319977387883
73,964.4124927047569,2.593576230372508E-5,0.0019378677600425133
74,963.593018371571,2.58328665698553E-5,0.0019637006266123684
75,962.7658371509177,2.5904162929046077E-5,0.0019896047895414143
76,961.9332780410026,2.5998684104205915E-5,0.00201560347364562
77,961.0991754465981,2.5851959091633217E-5,0.0020414554327372533
78,960.2538820375258,2.5596123733255765E-5,0.0020670515564705093
79,959.401815514353,2.5780847634462254E-5,0.0020928324041049715
80,958.5354067335179,2.573935213907987E-5,0.0021185717562440514
81,957.6617168803704,2.5849792125034896E-5,0.0021444215483690863
82,956.7859936850111,2.5981753383578386E-5,0.0021704033017526645
83,955.9028159286715,2.5768632155280482E-5,0.002196171933907945
84,955.0222960766083,2.605484276819315E-5,0.0022222267766761382
85,954.1346780625796,2.6132300966025495E-5,0.0022483590776421637
86,953.2411939930498,2.6144322459849654E-5,0.0022745034001020134
87,952.3448252385729,2.621703387430002E-5,0.0023007204339763132
88,951.4331693885516,2.627385838686045E-5,0.002326994292363174
89,950.5165196574825,2.6119625595521748E-5,0.0023531139179586956
90,949.6156951009056,2.6510592916504914E-5,0.0023796245108752005
91,948.7062647379299,2.639545657904346E-5,0.002406019967454244
92,947.7893233537076,2.62274897803473E-5,0.002432247457234591
93,946.8610164186396,2.6363590221175748E-5,0.002458611047455767
94,945.9179785720568,2.6423277824317223E-5,0.0024850343252800842
95,944.9642584817432,2.678543307774898E-5,0.0025118197583578333
96,944.0015971214422,2.703750824551137E-5,0.0025388572666033447
97,943.0375468560194,2.6867291210611667E-5,0.002565724557813956
98,942.0740297443814,2.7057485020228646E-5,0.0025927820428341846
99,941.0975170415006,2.7267082081358327E-5,0.002620049124915543
100,940.123505354577,2.7106180837196042E-5,0.002647155305752739
101,939.1335406460676,2.709258708134749E-5,0.0026742478928340864
102,938.1438740862488,2.715104607466322E-5,0.0027013989389087496
103,937.158583807082,2.6945754792837526E-5,0.0027283446937015872
104,936.1678629458931,2.6877824160036678E-5,0.002755222517861624
105,935.159429999858,2.6875358139126627E-5,0.0027820978760007505
106,934.1548463831276,2.7161135816498137E-5,0.0028092590118172487
107,933.1629742145291,2.70553943478627E-5,0.0028363144061651115
108,932.1797211587403,2.692862463903494E-5,0.0028632430308041463
109,931.1918403640931,2.6732381300869155E-5,0.0028899754121050154
110,930.2080566257556,2.6666732461441606E-5,0.002916642144566457
111,929.2205448473809,2.6444820024730607E-5,0.0029430869645911874
112,928.2236571383493,2.6381427944033295E-5,0.0029694683925352208
113,927.2375587599068,2.6411699058182833E-5,0.0029958800915934037
114,926.250832171673,2.628884653512443E-5,0.003022168938128528
115,925.2689716357283,2.647268628078636E-5,0.003048641624409314
116,924.2889601766196,2.6437546544162556E-5,0.0030750791709534767
117,923.3079818683608,2.6484855057706533E-5,0.0031015640260111835
118,922.3167303082257,2.6464706224094625E-5,0.003128028732235278
119,921.3189510859762,2.6531607027454497E-5,0.0031545603392627328
120,920.3174608376106,2.6642201987745194E-5,0.0031812025412504778
121,919.3024671873668,2.663592220469726E-5,0.003207838463455175
122,918.2789924395274,2.6604918542670752E-5,0.0032344433819978457
123,917.2525249181938,2.6425576593292838E-5,0.0032608689585911384
124,916.2377383671253,2.6206460981632447E-5,0.003287075419572771
125,915.2137083485434,2.5949472459366113E-5,0.0033130248920321373
126,914.1732329476177,2.582798632007533E-5,0.003338852878352213
127,913.1371628303971,2.562452373224445E-5,0.003364477402084457
128,912.0870186596592,2.5572677731753386E-5,0.0033900500798162104
129,911.0432990032873,2.5763730914222525E-5,0.003415813810730433
130,909.9925817719965,2.5720185723357277E-5,0.0034415339964537902
131,908.9432160531003,2.5801887171918586E-5,0.003467335883625709
132,907.8730334863802,2.5781807209070266E-5,0.003493117690834779
133,906.799529933928,2.5740647416866016E-5,0.003518858338251645
134,905.7066229069084,2.6053684500538535E-5,0.0035449120227521837
135,904.6080387355901,2.6433370983890813E-5,0.0035713453937360746
136,903.531207025185,2.6481028130421077E-5,0.003597826421866496
137,902.4574961679774,2.6678289134070142E-5,0.003624504711000566
138,901.388163308257,2.6951978623025918E-5,0.0036514566896235917
139,900.3348837970525,2.677235493878664E-5,0.0036782290445623784
140,899.2802527079255,2.6928487503321335E-5,0.0037051575320657
141,898.2088869748503,2.6487594184644774E-5,0.0037316451262503444
142,897.1392567100291,2.642467421140379E-5,0.0037580698004617483
143,896.0595127883022,2.6574142259622566E-5,0.003784643942721371
144,894.9663779171891,2.636949336405635E-5,0.003811013436085427
145,893.8750341064086,2.6329652042945934E-5,0.003837343088128373
146,892.7923080947162,2.6205073288666457E-5,0.0038635481614170395
147,891.6940501363731,2.607454132684998E-5,0.0038896227027438897
148,890.5913942662451,2.6300814048888403E-5,0.003915923516792778
149,889.4739732727463,2.610676160562492E-5,0.0039420302783984024
150,888.3793772929307,2.6134525521725435E-5,0.003968164803920128
151,887.3035397230736,2.615033309880084E-5,0.003994315137018929
152,886.2278337802516,2.6041395068688067E-5,0.004020356532087617
153,885.1352611517223,2.617719881674161E-5,0.0040465337309043585
154,884.045613347664,2.6213665896150853E-5,0.004072747396800509
155,882.9477503681388,2.6271372015451498E-5,0.004099018768815961
156,881.8643341686361,2.6226441231765554E-5,0.004125245210047726
157,880.7781021466767,2.6379652551377933E-5,0.004151624862599104
158,879.673960482247,2.630107705858847E-5,0.004177925939657692
159,878.5623782123433,2.6311112387821315E-5,0.004204237052045513
160,877.4332911006136,2.6613960738791214E-5,0.004230851012784305
161,876.2700856704056,2.6256071922836394E-5,0.004257107084707141
162,875.0934891829362,2.5907748500942553E-5,0.004283014833208083
163,873.922395064514,2.596108980065247E-5,0.004308975923008736
164,872.761256870599,2.5822264553606023E-5,0.004334798187562342
165,871.6041385816256,2.5801515250655336E-5,0.004360599702812998
166,870.4414530288424,2.558985029071676E-5,0.004386189553103714
167,869.2753518809355,2.566314828991085E-5,0.004411852701393625
168,868.1080178187353,2.5903728770880105E-5,0.004437756430164506
169,866.9495805873406,2.58178686882998E-5,0.004463574298852806
170,865.7813432076379,2.5826033773595672E-5,0.004489400332626401
171,864.6019647727038,2.588812885788654E-5,0.0045152884614842875
172,863.4252976969785,2.5602875053628702E-5,0.0045408913365379165
173,862.2504195533501,2.565621483595252E-5,0.004566547551373869
174,861.0759806646604,2.5792685335589507E-5,0.004592340236709459
175,859.9116468646545,2.6079400926362095E-5,0.004618419637635821
176,858.7320386216247,2.6355564210686446E-5,0.004644775201846508
177,857.5354235694736,2.6209110873153902E-5,0.004670984312719661
178,856.3319237102982,2.6385193044010965E-5,0.004697369505763672
179,855.113325715804,2.63398701927457E-5,0.0047237093759564175
180,853.8935618342683,2.640444030644329E-5,0.0047501138162628605
181,852.674095703575,2.629895988619521E-5,0.0047764127761490555
182,851.444720889663,2.6304956378850854E-5,0.004802717732527906
183,850.1979479238287,2.6170769438025947E-5,0.004828888501965932
184,848.9388490057731,2.6185055159512745E-5,0.004855073557125445
185,847.6755666224096,2.6242953337303015E-5,0.004881316510462749
186,846.404372828332,2.6170583779055904E-5,0.004907487094241805
187,845.1607022131108,2.6390988109266175E-5,0.004933878082351071
188,843.9279865051573,2.6121110564079257E-5,0.0049599991929151505
189,842.699928056767,2.5874550132432288E-5,0.004985873743047583
190,841.4518994344942,2.5980235912801743E-5,0.005011853978960384
191,840.2163156166205,2.5968403599714636E-5,0.005037822382560099
192,838.9677212170573,2.5938201374586204E-5,0.005063760583934685
193,837.6959900298345,2.595135716105885E-5,0.005089711941095744
194,836.4204043950979,2.6060674279945577E-5,0.00511577261537569
195,835.1344790207785,2.5844238543080046E-5,0.00514161685391877
196,833.836864529062,2.5818175889530746E-5,0.0051674350298083005
197,832.5302109830869,2.5716526893079377E-5,0.00519315155670138
198,831.199573626445,2.5805151824018694E-5,0.005218956708525399
199,829.8739204267852,2.5984222526795673E-5,0.0052449409310521946
200,828.5323361500255,2.604359001739385E-5,0.005270984521069589
201,827.1997024757579,2.5740961275243356E-5,0.005296725482344832
202,825.8398370388287,2.5640844961858174E-5,0.00532236632730669
203,824.4833240033838,2.5815376498502347E-5,0.0053481817038051925
204,823.1096773002963,2.5723691204001808E-5,0.005373905395009195
205,821.7257107395287,2.603804620961152E-5,0.005399943441218806
206,820.3450031495249,2.6239225800071682E-5,0.0054261826670188775
207,818.9853576425935,2.627369470759048E-5,0.005452456361726468
208,817.5998375538543,2.6130308285130638E-5,0.005478586670011599
209,816.2154669668727,2.5830660249246293E-5,0.005504417330260845
210,814.840593223386,2.5797580700249416E-5,0.005530214910961094
211,813.4413254592877,2.581793210759123E-5,0.005556032843068686
212,812.0470944201061,2.5809023416613988E-5,0.0055818418664853
213,810.6435303173796,2.610405300159008E-5,0.00560794591948689
214,809.2363751434406,2.5792820542400454E-5,0.0056337387400292906
215,807.8367162366136,2.5871021633280416E-5,0.005659609761662571
216,806.4152679959311,2.604077892692275E-5,0.005685650540589494
217,804.9911314293157,2.5974198228525692E-5,0.005711624738818019
218,803.592650880705,2.6042944726240856E-5,0.00573766768354426
219,802.2261225703261,2.625038064581135E-5,0.0057639180641900715
220,800.8456109234564,2.626285417910173E-5,0.005790180918369173
221,799.4745765241919,2.6348635753636546E-5,0.005816529554122809
222,798.0812506386966,2.6206781132000533E-5,0.0058427363352548094
223,796.69313822904,2.6190447930521957E-5,0.005868926783185332
224,795.3045363550835,2.6451262402937254E-5,0.005895378045588269
225,793.9284436236388,2.6514922093858866E-5,0.005921892967682128
226,792.6139355292586,2.670253991946073E-5,0.0059485955076015885
227,791.3089928415625,2.6805588160194093E-5,0.005975401095761782
228,789.9913945905587,2.652509336501953E-5,0.006001926189126801
229,788.679902862723,2.646443417600995E-5,0.006028390623302811
230,787.3675226194922,2.6603406375332354E-5,0.006054994029678144
231,786.051896944275,2.6712713078691697E-5,0.006081706742756835
232,784.7351572621459,2.6547901629228565E-5,0.006108254644386064
233,783.4158058410292,2.6543977131697376E-5,0.006134798621517761
234,782.0774286831537,2.657803897538081E-5,0.006161376660493142
235,780.7235047606536,2.6904124869865443E-5,0.006188280785363007
236,779.3595025967384,2.6975271115234445E-5,0.006215256056478242
237,778.0044457140093,2.6968092678272276E-5,0.006242224149156515
238,776.6268800439768,2.7389999645309616E-5,0.006269614148801824
239,775.2540982506258,2.7336387989843938E-5,0.0062969505367916675
240,773.870028251494,2.735073511737906E-5,0.0063243012719090465
241,772.538959456595,2.7225950661744154E-5,0.006351527222570791
242,771.2129122195834,2.731443163669244E-5,0.006378841654207483
243,769.88328890922,2.748103787604724E-5,0.00640632269208353
244,768.578326102304,2.7711495548256085E-5,0.006434034187631786
245,767.3058955260346,2.765525938574448E-5,0.00646168944701753
246,766.0504959143692,2.7533108214700424E-5,0.006489222555232231
247,764.7753331293505,2.7441579618161857E-5,0.006516664134850393
248,763.496223650554,2.7392349163170875E-5,0.006544056484013564
249,762.2334612592203,2.7371939644089065E-5,0.006571428423657653
250,760.9699567337954,2.662505619702543E-5,0.006598053479854678
251,759.7394959763178,2.6637501128448287E-5,0.006624690980983126
252,758.5477274132776,2.6722098122590737E-5,0.006651413079105717
253,757.3337416171173,2.6483456063033113E-5,0.00667789653516875
254,756.1201105910765,2.672760096377816E-5,0.006704624136132528
255,754.8968951559632,2.6790496539020346E-5,0.006731414632671549
256,753.6734945327291,2.7055170127987918E-5,0.0067584698027995365
257,752.4757965759659,2.7004566386371456E-5,0.006785474369185908
258,751.3092922976211,2.7121649403475124E-5,0.006812596018589383
259,750.1480436083077,2.7441508518765078E-5,0.006840037527108148
260,749.0037363132703,2.7320075031596712E-5,0.0068673576021397445
261,747.8391264185938,2.7374883616157846E-5,0.006894732485755902
262,746.6887425596288,2.7534354383991036E-5,0.006922266840139893
263,745.5526683958974,2.7398699473252642E-5,0.006949665539613146
264,744.4400386905329,2.7317888707999908E-5,0.006976983428321146
265,743.3506076270695,2.724049409665684E-5,0.007004223922417803
266,742.2526207448389,2.708001884485117E-5,0.007031303941262655
267,741.1085891921705,2.7118083249045787E-5,0.007058422024511701
268,739.9985344202411,2.719748079970738E-5,0.007085619505311408
269,738.8982085028587,2.7268062336041087E-5,0.007112887567647449
270,737.7883240383853,2.746138033231656E-5,0.007140348947979765
271,736.6859218068424,2.7324361336329504E-5,0.007167673309316095
272,735.5822181219347,2.752968290665492E-5,0.00719520299222275
273,734.4797411229956,2.7588730385816712E-5,0.007222791722608566
274,733.3874081510177,2.7684256846458244E-5,0.007250475979455024
275,732.2912223659137,2.7332225959736865E-5,0.007277808205414761
276,731.2225411611923,2.7395498045786844E-5,0.007305203703460548
277,730.156234331946,2.7235705688747756E-5,0.007332439409149296
278,729.087712102689,2.7360605129775033E-5,0.007359800014279071
279,728.0103080623093,2.740299409575616E-5,0.007387203008374827
280,726.9350291320236,2.7553210650744717E-5,0.007414756219025572
281,725.8534691250859,2.7783578618242537E-5,0.0074425397976438145
282,724.7423963341839,2.7714827707978376E-5,0.007470254625351793
283,723.6306090764674,2.774220282499772E-5,0.007497996828176791
284,722.5691794487796,2.7443177205417774E-5,0.007525440005382209
285,721.5066869125377,2.7370560378952023E-5,0.007552810565761161
286,720.4768580946752,2.7512851381025755E-5,0.007580323417142187
287,719.4674025404498,2.770815190981406E-5,0.007608031569052001
288,718.4457553857534,2.7827325240250415E-5,0.007635858894292252
289,717.4370149917441,2.787146679781388E-5,0.0076637303610900655
290,716.4352856525082,2.7676070955183424E-5,0.007691406432045249
291,715.476593646649,2.789642710026124E-5,0.00771930285914551
292,714.4997343372606,2.805234091558621E-5,0.007747355200061096
293,713.5315728440625,2.819022920844897E-5,0.007775545429269545
294,712.5944095178627,2.8421939052647726E-5,0.007803967368322193
295,711.6259740124298,2.8536330612986867E-5,0.00783250369893518
296,710.6501235585839,2.8804925014381994E-5,0.007861308623949561
297,709.6472632227395,2.8887582129888645E-5,0.00789019620607945
298,708.6453868787772,2.8743531224357223E-5,0.007918939737303808
299,707.6167773646443,2.867993005241232E-5,0.00794761966735622
300,706.5814439345171,2.8685503001799708E-5,0.00797630517035802
301,705.5673203204755,2.861204643130273E-5,0.008004917216789323
302,704.5609329083946,2.8620943453667225E-5,0.00803353816024299
303,703.5609654957561,2.8601539408611716E-5,0.008062139699651602
304,702.5762568805138,2.8544231649686026E-5,0.008090683931301287
305,701.6134248429677,2.857715244635719E-5,0.008119261083747645
306,700.6332690466645,2.8241998041340496E-5,0.008147503081788986
307,699.6243024111868,2.8082220561191452E-5,0.008175585302350177
308,698.5977260384054,2.8017738532656156E-5,0.008203603040882834
309,697.613372759335,2.8013024553347007E-5,0.008231616065436181
