#t,ESS,tempDiff,temp
0,999.9999999999848,0.0,0.0
1,999.9895016645307,2.830474774348049E-5,2.830474774348049E-5
2,999.9588082902926,2.813122490211596E-5,5.6435972645596454E-5
3,999.9085374987433,2.799724846979123E-5,8.443322111538769E-5
4,999.8390889046445,2.789184314181885E-5,1.1232506425720654E-4
5,999.7512736074003,2.785246811540087E-5,1.401775323726074E-4
6,999.6459180845795,2.767189650961864E-5,1.6784942888222604E-4
7,999.5230389022861,2.773005266871426E-5,1.955794815509403E-4
8,999.3806865430178,2.7754055027464467E-5,2.2333353657840477E-4
9,999.2223144201469,2.7668928959024982E-5,2.5100246553742974E-4
10,999.0447956734482,2.7674457142738238E-5,2.78676922680168E-4
11,998.8523321886098,2.7419769080970176E-5,3.060966917611382E-4
12,998.6472234915991,2.6961854341354106E-5,3.330585461024923E-4
13,998.4269730569672,2.6802957582657295E-5,3.598615036851496E-4
14,998.1889476586553,2.714881426127187E-5,3.8701031794642144E-4
15,997.9350676996827,2.7139939659221034E-5,4.1415025760564245E-4
16,997.6671160078831,2.691659894366912E-5,4.4106685654931156E-4
17,997.388641639813,2.6664752185143213E-5,4.6773160873445475E-4
18,997.1011652699278,2.650075769894515E-5,4.942323664334E-4
19,996.8031799725603,2.6529659619654107E-5,5.207620260530541E-4
20,996.4940412191887,2.6473506460393526E-5,5.472355325134476E-4
21,996.1721222172347,2.662685274864947E-5,5.73862385262097E-4
22,995.8388531036815,2.664502702980937E-5,6.005074122919064E-4
23,995.4913362618095,2.6552737099873027E-5,6.270601493917794E-4
24,995.1371378105016,2.6444704991772767E-5,6.535048543835521E-4
25,994.7738626697945,2.637969942721821E-5,6.798845538107703E-4
26,994.3971466734137,2.6350386200377413E-5,7.062349400111477E-4
27,994.0046606714702,2.6448253458942577E-5,7.326831934700903E-4
28,993.6088597932464,2.6077565431067833E-5,7.587607589011582E-4
29,993.2088454470893,2.5791457194978512E-5,7.845522160961367E-4
30,992.8054250142368,2.5719537849979976E-5,8.102717539461167E-4
31,992.3869977999988,2.583395677967453E-5,8.361057107257912E-4
32,991.9531958104499,2.5904282295782166E-5,8.620099930215733E-4
33,991.5150321266722,2.582424909956171E-5,8.878342421211351E-4
34,991.054694403139,2.602687209649837E-5,9.138611142176335E-4
35,990.5860436890237,2.6034156229805404E-5,9.398952704474389E-4
36,990.1058273872904,2.6155820124017488E-5,9.660510905714564E-4
37,989.6135331582818,2.6357150540639482E-5,9.924082411120957E-4
38,989.1137014545199,2.623128439639331E-5,0.0010186395255084892
39,988.6066119042523,2.6336119776076E-5,0.0010449756452845652
40,988.0837531221692,2.659490173048728E-5,0.0010715705470150526
41,987.5516131285331,2.6519503216205838E-5,0.0010980900502312585
42,987.0043870205694,2.6755540650440142E-5,0.0011248455908816986
43,986.4424040296342,2.6810565572978088E-5,0.0011516561564546767
44,985.873848932695,2.673401671940876E-5,0.0011783901731740854
45,985.2848595427224,2.6892008788792478E-5,0.001205282181962878
46,984.6893568696714,2.6861297204704416E-5,0.0012321434791675823
47,984.090902229928,2.6787308410870636E-5,0.0012589307875784529
48,983.4979832367882,2.663357795457221E-5,0.0012855643655330252
49,982.8885279595951,2.6750593154665704E-5,0.0013123149586876908
50,982.271779096518,2.6893443470668596E-5,0.0013392084021583595
51,981.646847482189,2.6704712013724266E-5,0.0013659131141720837
52,981.0220936731406,2.6614556135686537E-5,0.0013925276703077702
53,980.3939877476828,2.638421161080196E-5,0.0014189118819185722
54,979.7549929040529,2.6431948734146303E-5,0.0014453438306527185
55,979.0968058542678,2.655251858903095E-5,0.0014718963492417493
56,978.447887704742,2.597970804677486E-5,0.0014978760572885242
57,977.7778297436739,2.5987144626740956E-5,0.0015238632019152652
58,977.1094474814086,2.5910773000384728E-5,0.00154977397491565
59,976.4419506332163,2.5955439265111205E-5,0.0015757294141807612
60,975.7600710001816,2.5921908812158858E-5,0.0016016513229929201
61,975.0629118039261,2.6122268764879033E-5,0.0016277735917577991
62,974.3654751625977,2.6177754342575922E-5,0.001653951346100375
63,973.6679129993362,2.6092132023885165E-5,0.0016800434781242602
64,972.9657740794056,2.602335565986356E-5,0.0017060668337841238
65,972.2644613223808,2.6022940122664253E-5,0.001732089773906788
66,971.5645728947783,2.5854479551923023E-5,0.001757944253458711
67,970.8606813895491,2.5737276341750187E-5,0.0017836815298004612
68,970.1495569540853,2.558374976670115E-5,0.0018092652795671624
69,969.413697745686,2.5861123895409525E-5,0.001835126403462572
70,968.6723668535894,2.5644262327157095E-5,0.0018607706657897292
71,967.9262209009529,2.5545421969472863E-5,0.0018863160877592021
72,967.1699897174391,2.56159099795861E-5,0.0019119319977387883
73,966.3944656532477,2.593576230372508E-5,0.0019378677600425133
74,965.6151319515325,2.58328665698553E-5,0.0019637006266123684
75,964.8322519942363,2.5904162929046077E-5,0.0019896047895414143
76,964.0415758447299,2.5998684104205915E-5,0.00201560347364562
77,963.2576527602228,2.5851959091633217E-5,0.0020414554327372533
78,962.4727864721798,2.5596123733255765E-5,0.0020670515564705093
79,961.6835866380028,2.5780847634462254E-5,0.0020928324041049715
80,960.8914904805492,2.573935213907987E-5,0.0021185717562440514
81,960.0960122920699,2.5849792125034896E-5,0.0021444215483690863
82,959.2761785519972,2.5981753383578386E-5,0.0021704033017526645
83,958.4537280002045,2.5768632155280482E-5,0.002196171933907945
84,957.6048957613611,2.605484276819315E-5,0.0022222267766761382
85,956.7612804525629,2.6132300966025495E-5,0.0022483590776421637
86,955.9186740089777,2.6144322459849654E-5,0.0022745034001020134
87,955.0795726723827,2.621703387430002E-5,0.0023007204339763132
88,954.238536438734,2.627385838686045E-5,0.002326994292363174
89,953.4008132346419,2.6119625595521748E-5,0.0023531139179586956
90,952.5233779498368,2.6510592916504914E-5,0.0023796245108752005
91,951.6483420174878,2.639545657904346E-5,0.002406019967454244
92,950.7766666448362,2.62274897803473E-5,0.002432247457234591
93,949.8946940499918,2.6363590221175748E-5,0.002458611047455767
94,949.003915223365,2.6423277824317223E-5,0.0024850343252800842
95,948.1056685771977,2.678543307774898E-5,0.0025118197583578333
96,947.2020425248858,2.703750824551137E-5,0.0025388572666033447
97,946.29604880767,2.6867291210611667E-5,0.002565724557813956
98,945.3818202764464,2.7057485020228646E-5,0.0025927820428341846
99,944.4647136103465,2.7267082081358327E-5,0.002620049124915543
100,943.5414146670513,2.7106180837196042E-5,0.002647155305752739
101,942.6436703328222,2.709258708134749E-5,0.0026742478928340864
102,941.7292375869074,2.715104607466322E-5,0.0027013989389087496
103,940.8237422826996,2.6945754792837526E-5,0.0027283446937015872
104,939.9246622562343,2.6877824160036678E-5,0.002755222517861624
105,939.0263241842283,2.6875358139126627E-5,0.0027820978760007505
106,938.1189713784771,2.7161135816498137E-5,0.0028092590118172487
107,937.2213749127557,2.70553943478627E-5,0.0028363144061651115
108,936.3198433986382,2.692862463903494E-5,0.0028632430308041463
109,935.4332171926876,2.6732381300869155E-5,0.0028899754121050154
110,934.555192346483,2.6666732461441606E-5,0.002916642144566457
111,933.6682089854322,2.6444820024730607E-5,0.0029430869645911874
112,932.7870654225233,2.6381427944033295E-5,0.0029694683925352208
113,931.901718564213,2.6411699058182833E-5,0.0029958800915934037
114,931.0206452225574,2.628884653512443E-5,0.003022168938128528
115,930.1407831858086,2.647268628078636E-5,0.003048641624409314
116,929.2635940097564,2.6437546544162556E-5,0.0030750791709534767
117,928.3882351760316,2.6484855057706533E-5,0.0031015640260111835
118,927.5071928450709,2.6464706224094625E-5,0.003128028732235278
119,926.623875769153,2.6531607027454497E-5,0.0031545603392627328
120,925.7448228327368,2.6642201987745194E-5,0.0031812025412504778
121,924.8722363560332,2.663592220469726E-5,0.003207838463455175
122,924.0115699210456,2.6604918542670752E-5,0.0032344433819978457
123,923.1340892343077,2.6425576593292838E-5,0.0032608689585911384
124,922.2536452712266,2.6206460981632447E-5,0.003287075419572771
125,921.3711203793883,2.5949472459366113E-5,0.0033130248920321373
126,920.4992646059023,2.582798632007533E-5,0.003338852878352213
127,919.6367316432845,2.562452373224445E-5,0.003364477402084457
128,918.7589491282356,2.5572677731753386E-5,0.0033900500798162104
129,917.8767170932875,2.5763730914222525E-5,0.003415813810730433
130,916.9823884148892,2.5720185723357277E-5,0.0034415339964537902
131,916.0685460780136,2.5801887171918586E-5,0.003467335883625709
132,915.1605999179724,2.5781807209070266E-5,0.003493117690834779
133,914.2388569119007,2.5740647416866016E-5,0.003518858338251645
134,913.3057416585287,2.6053684500538535E-5,0.0035449120227521837
135,912.3477290285115,2.6433370983890813E-5,0.0035713453937360746
136,911.3858267137874,2.6481028130421077E-5,0.003597826421866496
137,910.4212016067344,2.6678289134070142E-5,0.003624504711000566
138,909.4533784586538,2.6951978623025918E-5,0.0036514566896235917
139,908.497205223889,2.677235493878664E-5,0.0036782290445623784
140,907.5331913784938,2.6928487503321335E-5,0.0037051575320657
141,906.5754314121364,2.6487594184644774E-5,0.0037316451262503444
142,905.6178892507642,2.642467421140379E-5,0.0037580698004617483
143,904.661400783458,2.6574142259622566E-5,0.003784643942721371
144,903.679346830839,2.636949336405635E-5,0.003811013436085427
145,902.6849575049872,2.6329652042945934E-5,0.003837343088128373
146,901.6891686532999,2.6205073288666457E-5,0.0038635481614170395
147,900.67850152341,2.607454132684998E-5,0.0038896227027438897
148,899.6778168855122,2.6300814048888403E-5,0.003915923516792778
149,898.6797449233999,2.610676160562492E-5,0.0039420302783984024
150,897.6802639194417,2.6134525521725435E-5,0.003968164803920128
151,896.6625328897995,2.615033309880084E-5,0.003994315137018929
152,895.6421807813219,2.6041395068688067E-5,0.004020356532087617
153,894.6019381444366,2.617719881674161E-5,0.0040465337309043585
154,893.5699949344232,2.6213665896150853E-5,0.004072747396800509
155,892.5260592312333,2.6271372015451498E-5,0.004099018768815961
156,891.4862983498837,2.6226441231765554E-5,0.004125245210047726
157,890.4178066460868,2.6379652551377933E-5,0.004151624862599104
158,889.351111243122,2.630107705858847E-5,0.004177925939657692
159,888.2630443660179,2.6311112387821315E-5,0.004204237052045513
160,887.1643551481333,2.6613960738791214E-5,0.004230851012784305
161,886.0836562729492,2.6256071922836394E-5,0.004257107084707141
162,885.0459246784229,2.5907748500942553E-5,0.004283014833208083
163,883.9986297533111,2.596108980065247E-5,0.004308975923008736
164,882.934585620436,2.5822264553606023E-5,0.004334798187562342
165,881.8734789375455,2.5801515250655336E-5,0.004360599702812998
166,880.827713800802,2.558985029071676E-5,0.004386189553103714
167,879.7684368574098,2.566314828991085E-5,0.004411852701393625
168,878.6976896066878,2.5903728770880105E-5,0.004437756430164506
169,877.6419615048388,2.58178686882998E-5,0.004463574298852806
170,876.5811315042831,2.5826033773595672E-5,0.004489400332626401
171,875.5110287087479,2.588812885788654E-5,0.0045152884614842875
172,874.4498537661851,2.5602875053628702E-5,0.0045408913365379165
173,873.4042902317487,2.565621483595252E-5,0.004566547551373869
174,872.3598410064465,2.5792685335589507E-5,0.004592340236709459
175,871.3117286767663,2.6079400926362095E-5,0.004618419637635821
176,870.2312631091179,2.6355564210686446E-5,0.004644775201846508
177,869.142670122055,2.6209110873153902E-5,0.004670984312719661
178,868.0229006587766,2.6385193044010965E-5,0.004697369505763672
179,866.8939997026264,2.63398701927457E-5,0.0047237093759564175
180,865.743495329042,2.640444030644329E-5,0.0047501138162628605
181,864.6117593685485,2.629895988619521E-5,0.0047764127761490555
182,863.4934384921086,2.6304956378850854E-5,0.004802717732527906
183,862.3728809049855,2.6170769438025947E-5,0.004828888501965932
184,861.2438426277195,2.6185055159512745E-5,0.004855073557125445
185,860.0999750393759,2.6242953337303015E-5,0.004881316510462749
186,858.9417647225946,2.6170583779055904E-5,0.004907487094241805
187,857.7852563906579,2.6390988109266175E-5,0.004933878082351071
188,856.6565460936358,2.6121110564079257E-5,0.0049599991929151505
189,855.5543275622427,2.5874550132432288E-5,0.004985873743047583
190,854.4480166743471,2.5980235912801743E-5,0.005011853978960384
191,853.3395144098727,2.5968403599714636E-5,0.005037822382560099
192,852.2481540288212,2.5938201374586204E-5,0.005063760583934685
193,851.1553131143123,2.595135716105885E-5,0.005089711941095744
194,850.0789337162877,2.6060674279945577E-5,0.00511577261537569
195,849.0043841519706,2.5844238543080046E-5,0.00514161685391877
196,847.9372926075174,2.5818175889530746E-5,0.0051674350298083005
197,846.8730091293489,2.5716526893079377E-5,0.00519315155670138
198,845.8386312429016,2.5805151824018694E-5,0.005218956708525399
199,844.8022538323485,2.5984222526795673E-5,0.0052449409310521946
200,843.7547782846165,2.604359001739385E-5,0.005270984521069589
201,842.6943267610493,2.5740961275243356E-5,0.005296725482344832
202,841.6486026503835,2.5640844961858174E-5,0.00532236632730669
203,840.5559468674896,2.5815376498502347E-5,0.0053481817038051925
204,839.475987684038,2.5723691204001808E-5,0.005373905395009195
205,838.3774011859371,2.603804620961152E-5,0.005399943441218806
206,837.2602512408438,2.6239225800071682E-5,0.0054261826670188775
207,836.1463470925592,2.627369470759048E-5,0.005452456361726468
208,835.0393187643492,2.6130308285130638E-5,0.005478586670011599
209,833.9355994088812,2.5830660249246293E-5,0.005504417330260845
210,832.8356852519923,2.5797580700249416E-5,0.005530214910961094
211,831.7463377144683,2.581793210759123E-5,0.005556032843068686
212,830.6765468653042,2.5809023416613988E-5,0.0055818418664853
213,829.5766882062891,2.610405300159008E-5,0.00560794591948689
214,828.4826739251178,2.5792820542400454E-5,0.0056337387400292906
215,827.3904538989007,2.5871021633280416E-5,0.005659609761662571
216,826.307340343135,2.604077892692275E-5,0.005685650540589494
217,825.2060880875307,2.5974198228525692E-5,0.005711624738818019
218,824.0838267479515,2.6042944726240856E-5,0.00573766768354426
219,822.9702179307111,2.625038064581135E-5,0.0057639180641900715
220,821.8384054419904,2.626285417910173E-5,0.005790180918369173
221,820.687900266849,2.6348635753636546E-5,0.005816529554122809
222,819.5817475224844,2.6206781132000533E-5,0.0058427363352548094
223,818.4815015502458,2.6190447930521957E-5,0.005868926783185332
224,817.3569634793098,2.6451262402937254E-5,0.005895378045588269
225,816.2230780100722,2.6514922093858866E-5,0.005921892967682128
226,815.1079350659828,2.670253991946073E-5,0.0059485955076015885
227,813.961911387117,2.6805588160194093E-5,0.005975401095761782
228,812.8182386436616,2.652509336501953E-5,0.006001926189126801
229,811.6471844400332,2.646443417600995E-5,0.006028390623302811
230,810.4690350855685,2.6603406375332354E-5,0.006054994029678144
231,809.2633081838167,2.6712713078691697E-5,0.006081706742756835
232,808.0672381299523,2.6547901629228565E-5,0.006108254644386064
233,806.875163952154,2.6543977131697376E-5,0.006134798621517761
234,805.697051628059,2.657803897538081E-5,0.006161376660493142
235,804.5079869129489,2.6904124869865443E-5,0.006188280785363007
236,803.3228949759304,2.6975271115234445E-5,0.006215256056478242
237,802.111594648795,2.6968092678272276E-5,0.006242224149156515
238,800.9104482271127,2.7389999645309616E-5,0.006269614148801824
239,799.7144236329093,2.7336387989843938E-5,0.0062969505367916675
240,798.5221003857432,2.735073511737906E-5,0.0063243012719090465
241,797.3448647998847,2.7225950661744154E-5,0.006351527222570791
242,796.1615987286668,2.731443163669244E-5,0.006378841654207483
243,794.9695956359889,2.748103787604724E-5,0.00640632269208353
244,793.7855826045532,2.7711495548256085E-5,0.006434034187631786
245,792.608756079447,2.765525938574448E-5,0.00646168944701753
246,791.4533346148015,2.7533108214700424E-5,0.006489222555232231
247,790.304850578016,2.7441579618161857E-5,0.006516664134850393
248,789.177370508826,2.7392349163170875E-5,0.006544056484013564
249,788.0782559626756,2.7371939644089065E-5,0.006571428423657653
250,786.9838100939179,2.662505619702543E-5,0.006598053479854678
251,785.8955924762495,2.6637501128448287E-5,0.006624690980983126
252,784.7963609659354,2.6722098122590737E-5,0.006651413079105717
253,783.7181624896348,2.6483456063033113E-5,0.00667789653516875
254,782.6593237566691,2.672760096377816E-5,0.006704624136132528
255,781.626036291923,2.6790496539020346E-5,0.006731414632671549
256,780.590988827021,2.7055170127987918E-5,0.0067584698027995365
257,779.5765604155283,2.7004566386371456E-5,0.006785474369185908
258,778.5658267576983,2.7121649403475124E-5,0.006812596018589383
259,777.5360762727283,2.7441508518765078E-5,0.006840037527108148
260,776.4855448711236,2.7320075031596712E-5,0.0068673576021397445
261,775.4358476047311,2.7374883616157846E-5,0.006894732485755902
262,774.3955757244794,2.7534354383991036E-5,0.006922266840139893
263,773.3540284874988,2.7398699473252642E-5,0.006949665539613146
264,772.3485284081397,2.7317888707999908E-5,0.006976983428321146
265,771.3582092188597,2.724049409665684E-5,0.007004223922417803
266,770.4024038378777,2.708001884485117E-5,0.007031303941262655
267,769.4732235185525,2.7118083249045787E-5,0.007058422024511701
268,768.5423430226128,2.719748079970738E-5,0.007085619505311408
269,767.6107029442638,2.7268062336041087E-5,0.007112887567647449
270,766.6621586801666,2.746138033231656E-5,0.007140348947979765
271,765.7236467348954,2.7324361336329504E-5,0.007167673309316095
272,764.7756486608954,2.752968290665492E-5,0.00719520299222275
273,763.8039284611284,2.7588730385816712E-5,0.007222791722608566
274,762.84345223671,2.7684256846458244E-5,0.007250475979455024
275,761.9499618150415,2.7332225959736865E-5,0.007277808205414761
276,761.056087500181,2.7395498045786844E-5,0.007305203703460548
277,760.1587732851202,2.7235705688747756E-5,0.007332439409149296
278,759.2503784961524,2.7360605129775033E-5,0.007359800014279071
279,758.3405817698433,2.740299409575616E-5,0.007387203008374827
280,757.4736762610095,2.7553210650744717E-5,0.007414756219025572
281,756.58852162153,2.7783578618242537E-5,0.0074425397976438145
282,755.7229414369883,2.7714827707978376E-5,0.007470254625351793
283,754.843446613038,2.774220282499772E-5,0.007497996828176791
284,753.9779071292876,2.7443177205417774E-5,0.007525440005382209
285,753.1205622047253,2.7370560378952023E-5,0.007552810565761161
286,752.2388180867829,2.7512851381025755E-5,0.007580323417142187
287,751.3321791379335,2.770815190981406E-5,0.007608031569052001
288,750.4207500490515,2.7827325240250415E-5,0.007635858894292252
289,749.4960669947291,2.787146679781388E-5,0.0076637303610900655
290,748.5928339845344,2.7676070955183424E-5,0.007691406432045249
291,747.6676143070345,2.789642710026124E-5,0.00771930285914551
292,746.7626592726181,2.805234091558621E-5,0.007747355200061096
293,745.8242568757097,2.819022920844897E-5,0.007775545429269545
294,744.9150298635152,2.8421939052647726E-5,0.007803967368322193
295,744.0033101895538,2.8536330612986867E-5,0.00783250369893518
296,743.0808229052515,2.8804925014381994E-5,0.007861308623949561
297,742.1357678056223,2.8887582129888645E-5,0.00789019620607945
298,741.2033672830433,2.8743531224357223E-5,0.007918939737303808
299,740.2553439788119,2.867993005241232E-5,0.00794761966735622
300,739.297324125192,2.8685503001799708E-5,0.00797630517035802
301,738.3111951092395,2.861204643130273E-5,0.008004917216789323
302,737.3413389637586,2.8620943453667225E-5,0.00803353816024299
303,736.347377186143,2.8601539408611716E-5,0.008062139699651602
304,735.3528581673045,2.8544231649686026E-5,0.008090683931301287
305,734.3682939637926,2.857715244635719E-5,0.008119261083747645
306,733.3693442721228,2.8241998041340496E-5,0.008147503081788986
307,732.4041875994068,2.8082220561191452E-5,0.008175585302350177
308,731.4050894917447,2.8017738532656156E-5,0.008203603040882834
309,730.4392409094085,2.8013024553347007E-5,0.008231616065436181
