#t,ESS,tempDiff,temp
0,200.00000000000065,0.0,0.0
1,199.99979999999977,4.982592707686356E-6,4.982592707686356E-6
2,199.99920228002463,5.087666334575028E-6,1.0070259042261384E-5
3,199.99821070661193,5.163282087148135E-6,1.5233541129409519E-5
4,199.99683312149168,5.182061546878105E-6,2.0415602676287623E-5
5,199.99506991845593,5.223508191120591E-6,2.5639110867408214E-5
6,199.9929351589877,5.2487460516642785E-6,3.088785691907249E-5
7,199.99041783159686,5.288735957084114E-6,3.61765928761566E-5
8,199.9875247400111,5.2712703534450414E-6,4.144786322960164E-5
9,199.98425391915922,5.254461069437208E-6,4.670232429903885E-5
10,199.98060766691611,5.3104605739757915E-6,5.201278487301464E-5
11,199.9765872273241,5.312471356793081E-6,5.732525622980772E-5
12,199.9722154664561,5.254891321931401E-6,6.258014755173912E-5
13,199.96746858442722,5.216873099657358E-6,6.779702065139649E-5
14,199.96238115895136,5.231750871143511E-6,7.302877152254E-5
15,199.9569444046846,5.157084649005265E-6,7.818585617154527E-5
16,199.95116504308209,5.013931105564607E-6,8.319978727710988E-5
17,199.94504546646255,5.0342053985713656E-6,8.823399267568125E-5
18,199.93853756700423,4.9759159287453655E-6,9.320990860442661E-5
19,199.93169877092555,5.091183234768681E-6,9.830109183919529E-5
20,199.9245285049752,5.031893863697274E-6,1.0333298570289257E-4
21,199.91702041154164,5.040371294540979E-6,1.0837335699743354E-4
22,199.90921461987978,5.088762333755188E-6,1.1346211933118873E-4
23,199.90105060651533,5.078847206397111E-6,1.1854096653758585E-4
24,199.8925819731108,5.065354206349864E-6,1.236063207439357E-4
25,199.88381518420604,5.0596805296672655E-6,1.2866600127360296E-4
26,199.87469209096412,5.127801205746588E-6,1.3379380247934954E-4
27,199.86524314163393,5.1755476008996165E-6,1.3896935008024915E-4
28,199.85550066953593,5.191750018984491E-6,1.4416110009923363E-4
29,199.84538026886298,5.250245924077267E-6,1.494113460233109E-4
30,199.83498095475437,5.194164842944044E-6,1.5460551086625494E-4
31,199.82436615940142,5.1820506633337235E-6,1.5978756152958866E-4
32,199.81339866472885,5.266068218049556E-6,1.6505362974763823E-4
33,199.80209069118968,5.27984841680886E-6,1.7033347816444708E-4
34,199.79050846484623,5.200977289077074E-6,1.7553445545352416E-4
35,199.77873067005763,5.223250029181077E-6,1.8075770548270524E-4
36,199.7666507705564,5.1991402510145905E-6,1.8595684573371983E-4
37,199.7543222487896,5.25585661553086E-6,1.9121270234925068E-4
38,199.74158569060734,5.217697153309551E-6,1.9643039950256023E-4
39,199.72857876128873,5.177573124964179E-6,2.0160797262752441E-4
40,199.71528579339474,5.16462762029989E-6,2.067726002478243E-4
41,199.7017633655811,5.205092921638891E-6,2.119776931694632E-4
42,199.68797064192177,5.25766849334138E-6,2.1723536166280458E-4
43,199.67392354329465,5.317005830437572E-6,2.2255236749324216E-4
44,199.6594502974386,5.337032680189685E-6,2.2788940017343185E-4
45,199.64484233749613,5.312759246809591E-6,2.3320215942024145E-4
46,199.6297953702688,5.352631876792837E-6,2.3855479129703428E-4
47,199.61442479015358,5.327108870737767E-6,2.4388190016777205E-4
48,199.59870834719584,5.32073961973506E-6,2.492026397875071E-4
49,199.58275912725298,5.29966550456336E-6,2.5450230529207047E-4
50,199.56650208690235,5.305885443395726E-6,2.598081907354662E-4
51,199.55003421142482,5.321229322606935E-6,2.6512942005807314E-4
52,199.53337347423485,5.341180467283948E-6,2.7047060052535707E-4
53,199.51647647850663,5.361751025666771E-6,2.7583235155102386E-4
54,199.4992779915801,5.3337481511747845E-6,2.8116609970219866E-4
55,199.48185541724843,5.288897362784977E-6,2.8645499706498364E-4
56,199.46431504005864,5.3741804541504514E-6,2.918291775191341E-4
57,199.44647859171434,5.35602740147314E-6,2.971852049206073E-4
58,199.42817803911612,5.431805950061192E-6,3.026170108706685E-4
59,199.4096742584125,5.46977639450101E-6,3.080867872651695E-4
60,199.39097900274606,5.4502770147192555E-6,3.135370642798888E-4
61,199.3721800296743,5.509411193074967E-6,3.1904647547296376E-4
62,199.35306047743896,5.523380373799398E-6,3.2456985584676317E-4
63,199.33368955712524,5.580878646051499E-6,3.301507344928147E-4
64,199.31426194116108,5.56378711542469E-6,3.357145216082394E-4
65,199.2946370298808,5.552230013984057E-6,3.4126675162222345E-4
66,199.27469489922,5.495682359527809E-6,3.467624339817513E-4
67,199.25450488682526,5.453825597305152E-6,3.522162595790564E-4
68,199.23420223944697,5.541322742559081E-6,3.577575823216155E-4
69,199.21391743984304,5.51132512126742E-6,3.632689074428829E-4
70,199.1933285577529,5.528638501582308E-6,3.687975459444652E-4
71,199.17263221061756,5.505959110840475E-6,3.743035050553057E-4
72,199.15164352405867,5.5185962167154775E-6,3.798221012720212E-4
73,199.13046061411882,5.359336179494101E-6,3.851814374515153E-4
74,199.10907264580263,5.393655940088048E-6,3.9057509339160336E-4
75,199.08734366583684,5.445248364600762E-6,3.9602034175620414E-4
76,199.0651741161827,5.400754726956187E-6,4.0142109648316033E-4
77,199.04300599147078,5.386082166229728E-6,4.0680717864939006E-4
78,199.02073688724343,5.405368709794958E-6,4.12212547359185E-4
79,198.9983547626379,5.44531505843132E-6,4.176578624176163E-4
80,198.97565066245366,5.368580855622108E-6,4.2302644327323844E-4
81,198.95301753427077,5.271507440648976E-6,4.282979507138874E-4
82,198.93003517124964,5.359594913672015E-6,4.336575456275594E-4
83,198.90696526075226,5.36752889928833E-6,4.3902507452684775E-4
84,198.8835353248682,5.427988447037889E-6,4.4445306297388564E-4
85,198.860262514919,5.432374082756652E-6,4.498854370566423E-4
86,198.83672243751744,5.443070808839198E-6,4.553285078654815E-4
87,198.81306277492027,5.385089819044151E-6,4.6071359768452564E-4
88,198.78910278933174,5.403265214545295E-6,4.661168628990709E-4
89,198.76492100339945,5.310961196040912E-6,4.714278240951118E-4
90,198.74055367847595,5.3860327257818095E-6,4.768138568208936E-4
91,198.71635563452043,5.3944821862912355E-6,4.822083390071849E-4
92,198.69167879792988,5.5155633657859426E-6,4.877239023729708E-4
93,198.66695716233457,5.441033517629866E-6,4.931649358906006E-4
94,198.64221670135382,5.414550343429304E-6,4.985794862340299E-4
95,198.61770926659352,5.438367329606213E-6,5.040178535636362E-4
96,198.59346591628443,5.406465623744506E-6,5.094243191873807E-4
97,198.56899977487134,5.40589469069907E-6,5.148302138780797E-4
98,198.5444036981361,5.486780162062669E-6,5.203169940401424E-4
99,198.51939198721604,5.508917422274665E-6,5.25825911462417E-4
100,198.494389296628,5.456898191510737E-6,5.312828096539278E-4
101,198.46901016133458,5.427574061619951E-6,5.367103837155478E-4
102,198.44333379227714,5.399253738137481E-6,5.421096374536853E-4
103,198.41743275189143,5.39282834386927E-6,5.475024657975546E-4
104,198.39161034782293,5.37598898596809E-6,5.528784547835226E-4
105,198.3656629667368,5.352185542109836E-6,5.582306403256324E-4
106,198.34023258596827,5.323451422547413E-6,5.635540917481799E-4
107,198.31474562135017,5.35397686664992E-6,5.689080686148298E-4
108,198.28866512451495,5.4177382700611735E-6,5.743258068848909E-4
109,198.26260335395978,5.467352390404716E-6,5.797931592752956E-4
110,198.23610680693392,5.379658562074489E-6,5.851728178373701E-4
111,198.20921882514702,5.446911452565907E-6,5.90619729289936E-4
112,198.18208372355394,5.467252049477423E-6,5.960869813394134E-4
113,198.15513336293066,5.541887247098592E-6,6.01628868586512E-4
114,198.12908821141568,5.4880911474550475E-6,6.07116959733967E-4
115,198.10297970807258,5.355309191896729E-6,6.124722689258638E-4
116,198.07703195366946,5.438768465796695E-6,6.179110373916605E-4
117,198.050851271534,5.495294472901071E-6,6.234063318645615E-4
118,198.02448346937086,5.48956917579145E-6,6.28895901040353E-4
119,197.99798360357156,5.521119965760001E-6,6.344170210061129E-4
120,197.97178527477558,5.6036983308335345E-6,6.400207193369465E-4
121,197.9452486284892,5.674414662066994E-6,6.456951339990134E-4
122,197.91830646685926,5.6033707381313045E-6,6.512985047371448E-4
123,197.8905623740694,5.56499705975797E-6,6.568635017969028E-4
124,197.86298731922778,5.546479401833841E-6,6.624099811987366E-4
125,197.83465792275518,5.54466974847278E-6,6.679546509472093E-4
126,197.80611909072394,5.518460359343363E-6,6.734731113065527E-4
127,197.77694622993462,5.551310241127111E-6,6.790244215476798E-4
128,197.74799737741589,5.446613670997988E-6,6.844710352186778E-4
129,197.7197003671026,5.498748888702429E-6,6.899697841073802E-4
130,197.6910746403972,5.5051892271986566E-6,6.954749733345788E-4
131,197.66223899733666,5.451681550982901E-6,7.009266548855617E-4
132,197.63334172658654,5.382977596002509E-6,7.063096324815642E-4
133,197.60494990653638,5.421583151759807E-6,7.11731215633324E-4
134,197.57660057396896,5.301357714656452E-6,7.170325733479805E-4
135,197.54826653787018,5.2996311344925434E-6,7.22332204482473E-4
136,197.52039777672422,5.2359291691150275E-6,7.27568133651588E-4
137,197.49187014760625,5.268255467408526E-6,7.328363891189965E-4
138,197.46296188843343,5.232683445529999E-6,7.380690725645265E-4
139,197.434181212729,5.237107237444318E-6,7.433061798019708E-4
140,197.40561406397848,5.26259855293713E-6,7.48568778354908E-4
141,197.37762840030229,5.236623724147138E-6,7.538054020790551E-4
142,197.34943370412566,5.2394451090355595E-6,7.590448471880907E-4
143,197.32067985261216,5.213366593310648E-6,7.642582137814013E-4
144,197.29185232137996,5.243307699857029E-6,7.695015214812584E-4
145,197.26265708963408,5.281846405231759E-6,7.747833678864902E-4
146,197.2333974054754,5.324411300268127E-6,7.801077791867583E-4
147,197.20394508619242,5.288544692576121E-6,7.853963238793344E-4
148,197.17432971654904,5.387303009050644E-6,7.90783626888385E-4
149,197.14533064502436,5.375473014482165E-6,7.961590999028672E-4
150,197.11590187851598,5.196269708935059E-6,8.013553696118022E-4
151,197.08691518274443,5.178782608691417E-6,8.065341522204936E-4
152,197.0574385633237,5.277843400639281E-6,8.118119956211329E-4
153,197.02712014012312,5.249576747805411E-6,8.170615723689383E-4
154,196.99660697864093,5.234778136283988E-6,8.222963505052222E-4
155,196.96573432862058,5.2517647914417846E-6,8.27548115296664E-4
156,196.9342145960075,5.242936139495887E-6,8.3279105143616E-4
157,196.90275912783375,5.247172915536258E-6,8.380382243516962E-4
158,196.87094564633196,5.243767460893866E-6,8.4328199181259E-4
159,196.83914979640394,5.259476129373284E-6,8.485414679419634E-4
160,196.80718279400622,5.284923548866006E-6,8.538263914908294E-4
161,196.77490345893037,5.380982740957962E-6,8.592073742317873E-4
162,196.74301535821678,5.471425465810841E-6,8.646787996975982E-4
163,196.71023872828812,5.394801145364078E-6,8.700736008429623E-4
164,196.67789340329603,5.475526315401487E-6,8.755491271583638E-4
165,196.6455407710293,5.435349735694876E-6,8.809844768940587E-4
166,196.6133918525237,5.339816386672615E-6,8.863242932807313E-4
167,196.5808455762042,5.368778025507711E-6,8.91693071306239E-4
168,196.54789149451045,5.335898869117453E-6,8.970289701753564E-4
169,196.5149597744935,5.328281462933694E-6,9.023572516382901E-4
170,196.481991319965,5.279164584445866E-6,9.076364162227359E-4
171,196.44876080307986,5.358637010719131E-6,9.129950532334551E-4
172,196.41463635062615,5.4261198645886384E-6,9.184211730980437E-4
173,196.3807605622494,5.403765048431397E-6,9.238249381464751E-4
174,196.34715835750765,5.386470715485089E-6,9.292114088619601E-4
175,196.31403560108444,5.373923162738095E-6,9.345853320246982E-4
176,196.2804892182988,5.289390843495567E-6,9.398747228681938E-4
177,196.24645216629068,5.2992021949974416E-6,9.451739250631913E-4
178,196.2119004920648,5.319505870816911E-6,9.504934309340083E-4
179,196.17608262626808,5.309177737311414E-6,9.558026086713197E-4
180,196.14010082567975,5.275918484506347E-6,9.61078527155826E-4
181,196.10347510143507,5.239416576268029E-6,9.663179437320941E-4
182,196.06642394776836,5.193344081702802E-6,9.715112878137969E-4
183,196.02903177492976,5.189659077653591E-6,9.767009468914505E-4
184,195.99130847941905,5.1705857916608194E-6,9.818715326831114E-4
185,195.95349621490303,5.122034537808649E-6,9.8699356722092E-4
186,195.9149903655362,5.129808825416675E-6,9.921233760463366E-4
187,195.87687555377923,5.141921860462245E-6,9.972652979067988E-4
188,195.83826209281844,5.189960511421714E-6,0.0010024552584182206
189,195.7995956377472,5.1935915848080284E-6,0.0010076488500030286
190,195.76063964754428,5.122343052630839E-6,0.0010127711930556593
191,195.7216461150523,5.0641626966032636E-6,0.0010178353557522626
192,195.68206480168755,5.049098206067959E-6,0.0010228844539583305
193,195.64366868615883,5.036509533482302E-6,0.001027920963491813
194,195.60515526501837,5.033996444062783E-6,0.0010329549599358758
195,195.56597631435,5.068193184185144E-6,0.001038023153120061
196,195.5268579614417,5.014656880932504E-6,0.0010430378100009935
197,195.48795567064036,5.045323979228714E-6,0.001048083133980222
198,195.4484196156606,5.14203122965381E-6,0.0010532251652098758
199,195.4091705715845,5.167951631534603E-6,0.0010583931168414104
200,195.3705489580466,5.212138924649756E-6,0.00106360525576606
201,195.33218068735275,5.192424842542456E-6,0.0010687976806086025
202,195.2936779767794,5.1681865688086415E-6,0.0010739658671774111
203,195.25527534702547,5.142118746657764E-6,0.0010791079859240689
204,195.21661381117522,5.164893024800136E-6,0.001084272878948869
205,195.1788055826836,5.2306632618171236E-6,0.0010895035422106862
206,195.14015858940436,5.272447552855695E-6,0.0010947759897635418
207,195.10120988642123,5.2328810379977735E-6,0.0011000088708015396
208,195.06304436573683,5.228197215309104E-6,0.0011052370680168487
209,195.02413431157217,5.229604167384191E-6,0.0011104666721842328
210,194.9860541821833,5.2542292001786186E-6,0.0011157209013844115
211,194.9476039570682,5.270312176384856E-6,0.0011209912135607964
212,194.90888827633333,5.307758530777042E-6,0.0011262989720915734
213,194.87059251781605,5.261362078854786E-6,0.0011315603341704283
214,194.83210484834981,5.254392311616514E-6,0.0011368147264820448
215,194.79325752476942,5.269801955325159E-6,0.0011420845284373698
216,194.75451286906798,5.313181771130449E-6,0.0011473977102085004
217,194.71544950041357,5.298274451775335E-6,0.0011526959846602756
218,194.6768387843133,5.1834759959764594E-6,0.0011578794606562522
219,194.63787750118252,5.224792402776834E-6,0.0011631042530590291
220,194.59880835717883,5.211216021786552E-6,0.0011683154690808157
221,194.56035168355547,5.315166366234578E-6,0.0011736306354470504
222,194.52216445156537,5.2453789342558775E-6,0.0011788760143813062
223,194.48359478807632,5.093953696229449E-6,0.0011839699680775357
224,194.4447119989904,5.099776512200235E-6,0.0011890697445897359
225,194.40584516334943,5.115801738887318E-6,0.0011941855463286231
226,194.3666013792506,5.102190552831961E-6,0.001199287736881455
227,194.32737808061776,5.040171868604113E-6,0.0012043279087500592
228,194.2877853197355,5.117061630548833E-6,0.001209444970380608
229,194.24806648509838,5.142286852039602E-6,0.0012145872572326476
230,194.20759859864015,5.220139161278067E-6,0.0012198073963939255
231,194.16710571881643,5.219001484835513E-6,0.0012250263978787611
232,194.12668180414613,5.327620676887886E-6,0.0012303540185556491
233,194.08645090584176,5.3792450553454825E-6,0.0012357332636109945
234,194.04599016530977,5.454871879966244E-6,0.0012411881354909607
235,194.0060505698683,5.5079749160460605E-6,0.0012466961104070067
236,193.96539438680512,5.458911886412052E-6,0.0012521550222934189
237,193.9249730178035,5.5137822780214316E-6,0.0012576688045714403
238,193.88453654496442,5.433122003758138E-6,0.0012631019265751985
239,193.84385006809214,5.554807715369657E-6,0.0012686567342905682
240,193.8036874345649,5.50539130837277E-6,0.0012741621255989409
241,193.7636984964529,5.472611300806805E-6,0.0012796347368997476
242,193.7232089469964,5.527106793576192E-6,0.0012851618436933237
243,193.6818289967225,5.465868248714141E-6,0.0012906277119420378
244,193.63974630134163,5.44351714323992E-6,0.0012960712290852776
245,193.59833373575697,5.487710524400601E-6,0.0013015589396096782
246,193.55612656959585,5.441011343747235E-6,0.0013069999509534255
247,193.5142826984729,5.530146822484942E-6,0.0013125300977759103
248,193.47206498228326,5.570531666053125E-6,0.0013181006294419634
249,193.43040270852,5.5880112329007465E-6,0.0013236886406748642
250,193.38823358566447,5.614424750825565E-6,0.0013293030654256898
251,193.34678064016208,5.638442975478448E-6,0.0013349415084011682
252,193.30604085433174,5.653395747843642E-6,0.0013405949041490118
253,193.26595371421277,5.725773058177988E-6,0.0013463206772071899
254,193.22707007861203,5.643805341880383E-6,0.0013519644825490704
255,193.18842726445052,5.676163228400872E-6,0.0013576406457774712
256,193.14989664184253,5.759313706374307E-6,0.0013633999594838456
257,193.1105741383993,5.776565914600134E-6,0.0013691765253984458
258,193.07169408191533,5.811147774547103E-6,0.0013749876731729929
259,193.0328074121118,5.798875222839279E-6,0.0013807865483958322
260,192.9944148096909,5.8532348649308E-6,0.001386639783260763
261,192.95521927032047,5.832947206643365E-6,0.0013924727304674062
262,192.91631469902464,5.769567189178316E-6,0.0013982422976565846
263,192.87858549179526,5.7426443429310095E-6,0.0014039849419995155
264,192.8416024030642,5.722878582492871E-6,0.0014097078205820084
265,192.80499386716164,5.6852643203455E-6,0.0014153930849023538
266,192.76710416858683,5.703071406532269E-6,0.0014210961563088861
267,192.72922828097572,5.664724584872556E-6,0.0014267608808937588
268,192.69114772044725,5.672720000592868E-6,0.0014324336008943517
269,192.65217570915257,5.640541658391791E-6,0.0014380741425527436
270,192.61259757363294,5.793634317189303E-6,0.001443867776869933
271,192.57303652119313,5.693447880157709E-6,0.0014495612247500905
272,192.53377305776806,5.628179625324369E-6,0.0014551894043754148
273,192.49295265226746,5.614661133508201E-6,0.001460804065508923
274,192.45227182171863,5.518174709607076E-6,0.0014663222402185301
275,192.41170532462385,5.487721593204819E-6,0.001471809961811735
276,192.37137119349381,5.447256388982948E-6,0.001477257218200718
277,192.33143944972068,5.346675691873644E-6,0.0014826038938925915
278,192.29206983420315,5.3135104453005744E-6,0.0014879174043378922
279,192.2520383172238,5.25109652456444E-6,0.0014931685008624566
280,192.21281280633903,5.156757147151261E-6,0.0014983252580096078
281,192.1740929193104,5.215716207415998E-6,0.0015035409742170237
282,192.13681219663064,5.248336037843535E-6,0.0015087893102548673
283,192.09939124756997,5.233400179430753E-6,0.001514022710434298
284,192.06093701457016,5.123915932324398E-6,0.0015191466263666225
285,192.02391208521692,5.194164709825008E-6,0.0015243407910764475
286,191.98691386381714,5.235089874687369E-6,0.001529575880951135
287,191.94982356662368,5.224313684199458E-6,0.0015348001946353346
288,191.91395653269254,5.200844904494082E-6,0.0015400010395398287
289,191.87786499850787,5.150551557138478E-6,0.0015451515910969672
290,191.8416021843133,5.1619530639968514E-6,0.0015503135441609641
291,191.804204217942,5.120403994103715E-6,0.0015554339481550679
292,191.7662246266985,5.210088136352794E-6,0.0015606440362914207
293,191.7292347708798,5.195924299660199E-6,0.001565839960591081
294,191.693197590054,5.250140712672947E-6,0.0015710901013037538
295,191.65738718425297,5.2569552219478924E-6,0.0015763470565257017
296,191.62174784125315,5.2820499045083445E-6,0.0015816291064302101
297,191.58545431793266,5.293860577138242E-6,0.0015869229670073483
298,191.54881557504098,5.260294211342227E-6,0.0015921832612186904
299,191.51038000298558,5.268590800258608E-6,0.001597451852018949
300,191.4710685070863,5.1616335589153544E-6,0.0016026134855778645
301,191.43174974163873,5.137337739804739E-6,0.0016077508233176693
302,191.39232189205742,5.132513464266542E-6,0.0016128833367819357
303,191.35302444626495,5.172982213019795E-6,0.0016180563189949555
304,191.31406452564696,5.183164076165048E-6,0.0016232394830711205
305,191.27524241201175,5.23942832852868E-6,0.0016284789113996492
306,191.23639229332252,5.160515516988536E-6,0.0016336394269166378
307,191.19711091225793,5.229194999973429E-6,0.0016388686219166112
