#t,ESS,tempDiff,temp
0,200.00000000000065,0.0,0.0
1,199.99978620388282,6.037337434558744E-6,6.037337434558744E-6
2,199.99914208844248,6.1406110655226735E-6,1.2177948500081417E-5
3,199.99806761355404,6.170475251735898E-6,1.8348423751817315E-5
4,199.99654814183023,6.274171238426184E-6,2.46225949902435E-5
5,199.99454981545344,6.33688786488158E-6,3.095948285512508E-5
6,199.99203665294974,6.363676920148028E-6,3.7323159775273105E-5
7,199.98905929807395,6.361134013629659E-6,4.368429378890276E-5
8,199.98567003650948,6.281373697442821E-6,4.996566748634558E-5
9,199.98188943856934,6.165733872856748E-6,5.613140135920233E-5
10,199.97765695229089,6.197570718570837E-6,6.232897207777317E-5
11,199.9729768677486,6.2484350385457565E-6,6.857740711631892E-5
12,199.9678946682456,6.1613068183207525E-6,7.473871393463967E-5
13,199.96244369910036,6.165232228282687E-6,8.090394616292235E-5
14,199.95646542532256,6.253746827434139E-6,8.715769299035648E-5
15,199.95016968954775,6.204135714871591E-6,9.336182870522807E-5
16,199.94336043815665,6.343993493444247E-6,9.970582219867233E-5
17,199.93592263077085,6.373578794369244E-6,1.0607940099304157E-4
18,199.9282252786471,6.3362130662098035E-6,1.1241561405925138E-4
19,199.9202430108245,6.308680404465882E-6,1.1872429446371725E-4
20,199.91169167072843,6.378055953458052E-6,1.251023504171753E-4
21,199.90277641772178,6.274477847321845E-6,1.3137682826449713E-4
22,199.89364267725537,6.2685169679244675E-6,1.376453452324216E-4
23,199.88387814718487,6.399889571241547E-6,1.4404523480366315E-4
24,199.8734534465122,6.4615965005398265E-6,1.5050683130420298E-4
25,199.8625702521159,6.642323569289363E-6,1.5714915487349235E-4
26,199.85142507387647,6.559816571288868E-6,1.637089714447812E-4
27,199.8396648148951,6.619599827391148E-6,1.7032857127217236E-4
28,199.82775453906177,6.54204247597311E-6,1.7687061374814546E-4
29,199.81553490872662,6.5190082310594715E-6,1.8338962197920493E-4
30,199.803380522093,6.352832986186657E-6,1.897424549653916E-4
31,199.79077746379028,6.319361740572348E-6,1.9606181670596396E-4
32,199.77745064567412,6.419249526039287E-6,2.0248106623200324E-4
33,199.7638508742342,6.485941675561873E-6,2.0896700790756513E-4
34,199.7498047597605,6.431649186597977E-6,2.153986570941631E-4
35,199.7353516740532,6.4235998952704465E-6,2.2182225698943355E-4
36,199.7210256886492,6.277382333106836E-6,2.2809963932254038E-4
37,199.70652764720046,6.2349470836849075E-6,2.3433458640622528E-4
38,199.69187212078165,6.139072392849684E-6,2.4047365879907497E-4
39,199.6764793719998,6.202595075413659E-6,2.4667625387448863E-4
40,199.6609947514664,6.18447863764021E-6,2.5286073251212885E-4
41,199.64499269183838,6.281929018194522E-6,2.591426615303234E-4
42,199.6291217129112,6.172414862579673E-6,2.6531507639290303E-4
43,199.61255685546243,6.207134506472322E-6,2.7152221089937534E-4
44,199.59550056659626,6.170765555647384E-6,2.776929764550227E-4
45,199.57757994420817,6.189057265287289E-6,2.8388203372030997E-4
46,199.55952441890406,6.153335637514558E-6,2.900353693578245E-4
47,199.54083897762558,6.13053746060769E-6,2.961659068184322E-4
48,199.5215381988056,6.175231397009527E-6,3.023411382154417E-4
49,199.5017201820294,6.213690591692433E-6,3.0855482880713414E-4
50,199.4812213376721,6.241667179491079E-6,3.147964959866252E-4
51,199.46019138569122,6.208349214264046E-6,3.2100484520088926E-4
52,199.43862252253905,6.207918617134605E-6,3.2721276381802387E-4
53,199.41736968154717,6.189275932294481E-6,3.3340203975031833E-4
54,199.39535363599126,6.224013357607755E-6,3.396260531079261E-4
55,199.37222491516673,6.330244440193476E-6,3.4595629754811957E-4
56,199.34940589868606,6.23289841140151E-6,3.5218919595952106E-4
57,199.32637131975434,6.2983925916515975E-6,3.5848758855117264E-4
58,199.3029759512379,6.288731754031208E-6,3.6477632030520383E-4
59,199.2802573795773,6.09733009709037E-6,3.708736504022942E-4
60,199.25725838339764,6.152809469301399E-6,3.7702645987159564E-4
61,199.23436040759168,6.201913273474993E-6,3.832283731450706E-4
62,199.2110569749993,6.255705674161003E-6,3.8948407881923163E-4
63,199.18788614733322,6.250340947045414E-6,3.9573441976627704E-4
64,199.16421269935427,6.322219928195754E-6,4.0205663969447277E-4
65,199.13982419767737,6.376372922046444E-6,4.084330126165192E-4
66,199.1155639678373,6.267041603495358E-6,4.1470005422001454E-4
67,199.09068875017027,6.325738398135347E-6,4.210257926181499E-4
68,199.06487193758662,6.446340053920329E-6,4.274721326720702E-4
69,199.03833635779307,6.483056970111394E-6,4.339551896421816E-4
70,199.01162535588261,6.407178777363244E-6,4.4036236841954484E-4
71,198.98426283772423,6.398824980637004E-6,4.4676119340018183E-4
72,198.9565628526311,6.3545017831497665E-6,4.531156951833316E-4
73,198.928271525736,6.338774699328263E-6,4.594544698826599E-4
74,198.8998356672484,6.262984051964217E-6,4.657174539346241E-4
75,198.87143220979064,6.216772837537695E-6,4.719342267721618E-4
76,198.84258526274542,6.252662508206608E-6,4.781868892803684E-4
77,198.81386536577048,6.1994773583723344E-6,4.843863666387407E-4
78,198.78438643441854,6.177619972736351E-6,4.90563986611477E-4
79,198.75503337151576,6.213772457462838E-6,4.967777590689399E-4
80,198.72570639680234,6.222649778385009E-6,5.030004088473249E-4
81,198.69676790814205,6.208996484576121E-6,5.09209405331901E-4
82,198.6680741483873,6.211426338991914E-6,5.154208316708929E-4
83,198.63916194539863,6.191986071478875E-6,5.216128177423718E-4
84,198.61017471594317,6.189938302009576E-6,5.278027560443814E-4
85,198.582066744106,6.147741693986507E-6,5.339504977383678E-4
86,198.5537401526319,6.105138170583266E-6,5.40055635908951E-4
87,198.52577822926537,6.134651394239372E-6,5.461902873031905E-4
88,198.49671655375585,6.276425231903829E-6,5.524667125350943E-4
89,198.46799361819097,6.23303148974916E-6,5.586997440248435E-4
90,198.44014455906935,6.078213693493137E-6,5.647779577183366E-4
91,198.4124212334197,6.064031593814592E-6,5.708419893121512E-4
92,198.38400228628353,6.029022192342853E-6,5.76871011504494E-4
93,198.35521163062162,6.0611027415724706E-6,5.829321142460665E-4
94,198.32615795936306,6.045504430156597E-6,5.889776186762231E-4
95,198.29675150528863,6.0593346703373185E-6,5.950369533465604E-4
96,198.2676878792396,5.925536213629329E-6,6.009624895601897E-4
97,198.2388203721948,5.935922806677891E-6,6.068984123668676E-4
98,198.21018152914093,5.922049397749424E-6,6.12820461764617E-4
99,198.18167648617768,5.921368321695211E-6,6.187418300863122E-4
100,198.15290609590645,5.918331660500126E-6,6.246601617468123E-4
101,198.12426116607617,5.923885897902825E-6,6.305840476447151E-4
102,198.09493849094662,5.977117905470657E-6,6.365611655501858E-4
103,198.0651503990412,5.984004292170152E-6,6.425451698423559E-4
104,198.0352048795397,5.979080292894261E-6,6.485242501352501E-4
105,198.00570030419468,5.863600377737477E-6,6.543878505129876E-4
106,197.9761261011791,5.843820724881184E-6,6.602316712378688E-4
107,197.94662120314544,5.727410029566825E-6,6.659590812674356E-4
108,197.91698735052532,5.794943579862763E-6,6.717540248472984E-4
109,197.8878389487488,5.684807421199185E-6,6.774388322684975E-4
110,197.8574595612404,5.759250738362931E-6,6.831980830068605E-4
111,197.82718432814457,5.72336310700791E-6,6.889214461138684E-4
112,197.79734934908305,5.583476963829207E-6,6.945049230776976E-4
113,197.76791138387236,5.595015374610919E-6,7.000999384523085E-4
114,197.73767387551976,5.654007459562377E-6,7.057539459118709E-4
115,197.70672536650167,5.661778050741436E-6,7.114157239626124E-4
116,197.6748383229793,5.742125921206042E-6,7.171578498838184E-4
117,197.6436329863575,5.713556164555429E-6,7.228714060483739E-4
118,197.61162802026368,5.774900476525676E-6,7.286463065248995E-4
119,197.5789665813088,5.821541920195332E-6,7.344678484450948E-4
120,197.54666173491137,5.749533575461381E-6,7.402173820205562E-4
121,197.5134824214345,5.838944137270897E-6,7.460563261578271E-4
122,197.48137626171123,5.75049003582096E-6,7.518068161936481E-4
123,197.44905969492478,5.841969507081046E-6,7.576487857007292E-4
124,197.41637557135925,5.832646867395629E-6,7.634814325681248E-4
125,197.38333379195083,5.7927250102349054E-6,7.692741575783597E-4
126,197.3508958552442,5.6570530855761005E-6,7.749312106639358E-4
127,197.31830360176426,5.710609180910376E-6,7.806418198448462E-4
128,197.28480484315685,5.722560715639982E-6,7.863643805604861E-4
129,197.25077541248152,5.814312395314323E-6,7.921786929558004E-4
130,197.21709707023828,5.831091788639255E-6,7.980097847444397E-4
131,197.182228135501,5.969610246325514E-6,8.039793949907652E-4
132,197.1461767542325,6.0085484723308585E-6,8.09987943463096E-4
133,197.1095926687448,5.956091010433938E-6,8.159440344735299E-4
134,197.07384612953493,5.869992032502403E-6,8.218140265060323E-4
135,197.037915917323,5.927447627267614E-6,8.277414741332999E-4
136,197.00335322484563,5.847212131919033E-6,8.335886862652189E-4
137,196.96930888087272,5.873910201933926E-6,8.394625964671528E-4
138,196.9359373776788,5.872960941365922E-6,8.453355574085188E-4
139,196.9027462032064,5.817419563865188E-6,8.511529769723839E-4
140,196.869514969116,5.925892175493438E-6,8.570788691478774E-4
141,196.8360992388702,5.981007287516768E-6,8.630598764353942E-4
142,196.8013181518943,6.031032113796476E-6,8.690909085491907E-4
143,196.7677521647615,6.011963240651183E-6,8.751028717898419E-4
144,196.7346709293212,5.957104911310166E-6,8.81059976701152E-4
145,196.70140975604855,5.9490899428576984E-6,8.870090666440098E-4
146,196.6688664454473,5.9532001159804005E-6,8.929622667599901E-4
147,196.63675840698116,5.839223886036092E-6,8.988014906460263E-4
148,196.60372738223936,5.9144570635808525E-6,9.047159477096071E-4
149,196.56961628339445,6.048875091908341E-6,9.107648228015155E-4
150,196.53722138437269,5.96742889552368E-6,9.167322516970392E-4
151,196.50474228245417,5.900019027933743E-6,9.226322707249729E-4
152,196.47224604782323,5.980802122496201E-6,9.286130728474691E-4
153,196.43984687629006,5.90771616099754E-6,9.345207890084666E-4
154,196.40874937558706,5.766443554271427E-6,9.402872325627381E-4
155,196.37668267242196,5.657229175188576E-6,9.459444617379266E-4
156,196.3438277887453,5.7799191943448105E-6,9.517243809322714E-4
157,196.31129807558193,5.674023439179471E-6,9.57398404371451E-4
158,196.27904388320715,5.641624174766549E-6,9.630400285462175E-4
159,196.24705789716032,5.6687759890379436E-6,9.687088045352555E-4
160,196.214583008213,5.6931086009227895E-6,9.744019131361783E-4
161,196.18136506501008,5.7332133108142475E-6,9.801351264469925E-4
162,196.14770980155768,5.6708499942188046E-6,9.858059764412113E-4
163,196.1140975004501,5.706701413849139E-6,9.915126778550604E-4
164,196.08121220160118,5.607401999031673E-6,9.97120079854092E-4
165,196.04910125881509,5.637518407782438E-6,0.0010027575982618745
166,196.01573279233486,5.634689000795607E-6,0.0010083922872626701
167,195.98313220111513,5.558455507933152E-6,0.0010139507427706033
168,195.95006363096968,5.563848710285216E-6,0.0010195145914808886
169,195.9163035925561,5.663418675392148E-6,0.0010251780101562808
170,195.88281006756722,5.607595578593115E-6,0.001030785605734874
171,195.85012310069322,5.539114761952179E-6,0.0010363247204968262
172,195.81790909839572,5.595611492804026E-6,0.0010419203319896302
173,195.78557099473088,5.599344288481045E-6,0.0010475196762781112
174,195.75287012837623,5.6274633958773036E-6,0.0010531471396739885
175,195.71965171944842,5.7312680754067215E-6,0.001058878407749395
176,195.685492348574,5.792515537823747E-6,0.0010646709232872188
177,195.65188569437677,5.744648378646794E-6,0.0010704155716658656
178,195.6165297652381,5.837954746515384E-6,0.001076253526412381
179,195.5824891975386,5.649063843238122E-6,0.0010819025902556192
180,195.54736078658186,5.722491577104876E-6,0.001087625081832724
181,195.51092681238634,5.852593650145734E-6,0.0010934776754828698
182,195.47376349083308,5.89657492780136E-6,0.0010993742504106711
183,195.43740339887162,5.846937848247657E-6,0.0011052211882589189
184,195.40317396154367,5.822458328659703E-6,0.0011110436465875785
185,195.36744187844337,5.860775338251913E-6,0.0011169044219258304
186,195.33196098279328,5.807278200148748E-6,0.001122711700125979
187,195.29532126906147,5.8755926602548334E-6,0.001128587292786234
188,195.25858715173896,5.777976350946217E-6,0.0011343652691371802
189,195.22167553722576,5.815299067338173E-6,0.0011401805682045183
190,195.18432494774981,5.849867687914022E-6,0.0011460304358924323
191,195.14655141838836,5.857902099929034E-6,0.0011518883379923613
192,195.10829030295181,5.85413829667347E-6,0.0011577424762890347
193,195.0705025708207,5.875175011990864E-6,0.0011636176513010255
194,195.03244211526982,5.888594658689181E-6,0.0011695062459597147
195,194.99594295586704,5.737044381504023E-6,0.0011752432903412188
196,194.95926034513806,5.720031685952708E-6,0.0011809633220271716
197,194.9243387304464,5.6582974724422035E-6,0.0011866216194996138
198,194.8888783751334,5.731121597834527E-6,0.0011923527410974484
199,194.85248463516575,5.87451823619608E-6,0.0011982272593336445
200,194.8149970692641,5.861041885976164E-6,0.0012040883012196207
201,194.7774666181085,5.783007678830735E-6,0.0012098713088984515
202,194.74024629541924,5.799778884932414E-6,0.0012156710877833838
203,194.7049849242242,5.717533845512359E-6,0.0012213886216288963
204,194.66929562368105,5.669064457723366E-6,0.0012270576860866195
205,194.6320943905369,5.69934387199458E-6,0.001232757029958614
206,194.5935382565285,5.709419011889036E-6,0.001238466448970503
207,194.55409612271242,5.763481692549401E-6,0.0012442299306630524
208,194.51501059317928,5.7810200487331164E-6,0.0012500109507117855
209,194.476178581069,5.810920161288842E-6,0.0012558218708730745
210,194.43731322346332,5.849914734013638E-6,0.001261671785607088
211,194.39996602396667,5.803076440456268E-6,0.0012674748620475444
212,194.3632506449634,5.798234129793401E-6,0.001273273096177338
213,194.32527291503493,5.794708160292702E-6,0.0012790678043376306
214,194.28893281356773,5.813705634434208E-6,0.0012848815099720649
215,194.25315582264167,5.767244685033954E-6,0.0012906487546570989
216,194.21647671456623,5.9238507740452406E-6,0.0012965726054311442
217,194.18027023203945,5.924188962729181E-6,0.0013024967943938734
218,194.14323569709754,5.943926111372857E-6,0.0013084407205052463
219,194.10580240577508,5.95453758779165E-6,0.001314395258093038
220,194.06812209410066,5.987827592052208E-6,0.0013203830856850902
221,194.03081528665348,6.016826132622709E-6,0.001326399911817713
222,193.99529839191948,5.922095551928469E-6,0.0013323220073696415
223,193.95988957829124,5.853257328330845E-6,0.0013381752646979723
224,193.92372286670326,5.7721751731282095E-6,0.0013439474398711005
225,193.8887272730603,5.655653478118099E-6,0.0013496030933492185
226,193.85325796528554,5.6678082357836026E-6,0.0013552709015850022
227,193.81862360564148,5.643802818040546E-6,0.0013609147044030428
228,193.78391968565722,5.6223379785625085E-6,0.0013665370423816053
229,193.74841360262957,5.6459871717427776E-6,0.0013721830295533482
230,193.71422661982928,5.576236093954495E-6,0.0013777592656473027
231,193.6793115609687,5.529013753586143E-6,0.0013832882794008888
232,193.64326010499704,5.611117647514563E-6,0.0013888993970484033
233,193.60628779748177,5.613847095234266E-6,0.0013945132441436376
234,193.57141459058823,5.5121013626926466E-6,0.0014000253455063302
235,193.5378942571128,5.477089785236443E-6,0.0014055024352915666
236,193.50469015342063,5.458323848590933E-6,0.0014109607591401576
237,193.47214689798815,5.479491808494326E-6,0.001416440250948652
238,193.43932452518374,5.515540425900063E-6,0.001421955791374552
239,193.40625688505986,5.539841613365823E-6,0.0014274956329879177
240,193.37270011245786,5.456603994709346E-6,0.001432952236982627
241,193.33884296683948,5.593046426790555E-6,0.0014385452834094175
242,193.3046287209698,5.530308946704794E-6,0.0014440755923561222
243,193.26997798428624,5.495786256348114E-6,0.0014495713786124703
244,193.23401042346597,5.565575504766707E-6,0.0014551369541172371
245,193.19732986379086,5.583253018683846E-6,0.001460720207135921
246,193.16098222473738,5.58225252661176E-6,0.0014663024596625327
247,193.12447652794336,5.661678826196494E-6,0.0014719641384887292
248,193.0854146924224,5.7133299222159594E-6,0.0014776774684109452
249,193.0471196836947,5.715731315656849E-6,0.001483393199726602
250,193.00981929780983,5.690821243743554E-6,0.0014890840209703456
251,192.97267435754887,5.682384431992663E-6,0.0014947664054023382
252,192.93378269589908,5.700590633694996E-6,0.0015004669960360332
253,192.89534777897077,5.6828514885724685E-6,0.0015061498475246056
254,192.85595270921252,5.756889982095096E-6,0.0015119067375067008
255,192.81588979965295,5.784015153541658E-6,0.0015176907526602424
256,192.775266657331,5.852266651941483E-6,0.0015235430193121838
257,192.73385521430006,5.796559494865536E-6,0.0015293395788070494
258,192.69338000955682,5.749471323842272E-6,0.0015350890501308917
259,192.6509515398951,5.830823398247928E-6,0.0015409198735291396
260,192.6083446145305,5.862035364571631E-6,0.0015467819088937113
261,192.56785356895858,5.794923954203346E-6,0.0015525768328479147
262,192.52768054951997,5.900664143759009E-6,0.0015584774969916737
263,192.48661020741324,5.896893098339593E-6,0.0015643743900900133
264,192.44669414709998,5.821313660203704E-6,0.001570195703750217
265,192.4060269974263,5.7014294179744695E-6,0.0015758971331681915
266,192.36483673506427,5.721857835218142E-6,0.0015816189910034097
267,192.32220536505775,5.753660284474012E-6,0.0015873726512878837
268,192.27767348642706,5.724393140795704E-6,0.0015930970444286794
269,192.23315019912712,5.75623421380438E-6,0.0015988532786424838
270,192.18915967465554,5.766674799828836E-6,0.0016046199534423126
271,192.1450065968768,5.776253990581165E-6,0.0016103962074328938
272,192.10190544658826,5.7368111560781965E-6,0.001616133018588972
273,192.05902240916222,5.614419676080029E-6,0.001621747438265052
274,192.01678834019913,5.622297845428385E-6,0.0016273697361104806
275,191.97368695460685,5.708417342047845E-6,0.0016330781534525283
276,191.92995111967994,5.74688102137248E-6,0.0016388250344739007
277,191.8859581614747,5.642371603804572E-6,0.0016444674060777052
278,191.8402638563308,5.674283537231413E-6,0.0016501416896149367
279,191.7925043158836,5.7069629458267434E-6,0.0016558486525607634
280,191.74547875926717,5.677783472118055E-6,0.0016615264360328814
281,191.69850470583532,5.664176447387095E-6,0.0016671906124802686
282,191.6528371308353,5.666300127836077E-6,0.0016728569126081047
283,191.6064071239793,5.819396317040483E-6,0.001678676308925145
284,191.55882034927092,5.910648077626873E-6,0.001684586957002772
285,191.5104520517856,5.86478025464451E-6,0.0016904517372574165
286,191.4615357071314,5.872817562824196E-6,0.0016963245548202407
287,191.41448851433003,5.794315921724505E-6,0.0017021188707419652
288,191.36651508792542,5.741222058568507E-6,0.0017078600928005336
289,191.31825582451614,5.680993377622109E-6,0.0017135410861781556
290,191.27157627118604,5.6712487938464615E-6,0.001719212334972002
291,191.22369072659302,5.82720547234872E-6,0.0017250395404443508
292,191.1777847348868,5.6782102353397975E-6,0.0017307177506796906
293,191.13094221042923,5.771646517335969E-6,0.0017364893971970265
294,191.0836618603182,5.876308694677574E-6,0.001742365705891704
295,191.03463036041217,5.96422593492216E-6,0.0017483299318266263
296,190.9841094093475,6.0159358011603315E-6,0.0017543458676277867
297,190.93245896715337,5.989191164176218E-6,0.0017603350587919629
298,190.88087790949692,6.024562876804972E-6,0.0017663596216687678
299,190.82755201177645,6.083115361456668E-6,0.0017724427370302246
300,190.77506402514499,6.060895067345576E-6,0.00177850363209757
301,190.72272063625243,6.047732159563208E-6,0.0017845513642571332
302,190.66971540929214,6.0839605807667065E-6,0.0017906353248379
303,190.6166695411681,6.163019381023096E-6,0.001796798344218923
304,190.56339309357713,6.096291674252798E-6,0.0018028946358931758
305,190.51141618159812,6.028799270071394E-6,0.001808923435163247
306,190.46056816193285,6.045580231921722E-6,0.0018149690153951687
307,190.40884097899857,6.09314896226197E-6,0.0018210621643574307
