#t,ESS,tempDiff,temp
0,999.9999999999848,0.0,0.0
1,999.9900000000001,2.8179320141349556E-5,2.8179320141349556E-5
2,999.9604564420088,2.8237036500768534E-5,5.641635664211809E-5
3,999.911722773698,2.8065906694889846E-5,8.448226333700794E-5
4,999.8443301579485,2.817111993837563E-5,1.1265338327538357E-4
5,999.759168322622,2.8094087282651263E-5,1.4074747055803482E-4
6,999.6557555786269,2.8404429623894702E-5,1.6915190018192952E-4
7,999.5343062989076,2.811025436316225E-5,1.9726215454509178E-4
8,999.3958996693102,2.8209457260416614E-5,2.254716118055084E-4
9,999.2415839363917,2.7912143048182877E-5,2.5338375485369126E-4
10,999.0702103550061,2.7670568941832493E-5,2.8105432379552374E-4
11,998.8837621105404,2.7884203134528325E-5,3.089385269300521E-4
12,998.6807564441343,2.7841359813422926E-5,3.3677988674347503E-4
13,998.461015707742,2.767599187759639E-5,3.644558786210714E-4
14,998.2256341305059,2.7641977272084246E-5,3.9209785589315566E-4
15,997.975699479222,2.766147314085049E-5,4.1975932903400617E-4
16,997.7109575671615,2.7703675628803523E-5,4.474630046628097E-4
17,997.4312663618346,2.795193405305319E-5,4.7541493871586287E-4
18,997.1380300279646,2.8203590593995337E-5,5.036185293098582E-4
19,996.8310765126495,2.821703721401865E-5,5.318355665238768E-4
20,996.5093840560322,2.8386858323622666E-5,5.602224248474995E-4
21,996.1752791487265,2.8206018561926133E-5,5.884284434094256E-4
22,995.8273407137955,2.8192130453738958E-5,6.166205738631646E-4
23,995.4652208976435,2.791344946201962E-5,6.445340233251842E-4
24,995.0901580496778,2.7732446939473933E-5,6.722664702646582E-4
25,994.7036287120135,2.76746767423887E-5,6.999411470070469E-4
26,994.3057290159542,2.7667992451483765E-5,7.276091394585306E-4
27,993.8949958026612,2.754432294212271E-5,7.551534624006533E-4
28,993.4740247550711,2.7507508681045138E-5,7.826609710816985E-4
29,993.0396709695452,2.7844627766944168E-5,8.105055988486427E-4
30,992.5915387925647,2.7814258949745563E-5,8.383198577983882E-4
31,992.1329572373562,2.7595624614705443E-5,8.659154824130937E-4
32,991.6624378730424,2.73831319661544E-5,8.932986143792482E-4
33,991.1793079387945,2.7410174350035606E-5,9.207087887292837E-4
34,990.6835810500862,2.7472927744781125E-5,9.481817164740648E-4
35,990.1810266116179,2.7166581542360834E-5,9.753482980164257E-4
36,989.6685482186926,2.6975222585005073E-5,0.0010023235206014307
37,989.1474686808069,2.6919973926789372E-5,0.00102924349452822
38,988.6136863100002,2.677832226098555E-5,0.0010560218167892056
39,988.0696308736168,2.6815209266675992E-5,0.0010828370260558815
40,987.5170601470206,2.6664885041628103E-5,0.0011095019110975097
41,986.9547567047852,2.6894300659295014E-5,0.0011363962117568046
42,986.3873991192094,2.6935324479550185E-5,0.0011633315362363549
43,985.8109497509295,2.672215856972919E-5,0.0011900536948060841
44,985.2219842197832,2.679207014526784E-5,0.001216845764951352
45,984.6234655006285,2.7019161704418075E-5,0.0012438649266557703
46,984.0194953759075,2.6786287060513978E-5,0.0012706512137162843
47,983.4091078811844,2.682874100949487E-5,0.0012974799547257792
48,982.7872278103964,2.6812966960064265E-5,0.0013242929216858434
49,982.1557483794287,2.6951563072201488E-5,0.001351244484758045
50,981.518672793487,2.693327256267507E-5,0.0013781777573207202
51,980.8746247584174,2.6945221995177063E-5,0.0014051229793158972
52,980.222646393996,2.654132126981034E-5,0.0014316643005857076
53,979.5595566505341,2.632528468646607E-5,0.0014579895852721736
54,978.8855832208134,2.636776729486367E-5,0.0014843573525670374
55,978.2106157345648,2.6266151840549993E-5,0.0015106235044075873
56,977.5236516076395,2.6087813552275182E-5,0.0015367113179598625
57,976.8309550102128,2.6049380429425298E-5,0.0015627606983892879
58,976.1281709870648,2.6164075826894072E-5,0.0015889247742161819
59,975.4179580979397,2.6383816686307392E-5,0.0016153085909024892
60,974.6986462860618,2.6484817244199193E-5,0.0016417934081466884
61,973.9714128833923,2.6189449269162935E-5,0.0016679828574158514
62,973.2339252348066,2.6054146405324314E-5,0.0016940370038211756
63,972.4860791159894,2.6147740667654256E-5,0.0017201847444888298
64,971.7335988848664,2.6009069619896004E-5,0.0017461938141087258
65,970.9659261840802,2.6205706459985045E-5,0.0017723995205687108
66,970.1927387304033,2.6380408402440896E-5,0.0017987799289711517
67,969.4160830069122,2.6366462900611703E-5,0.0018251463918717633
68,968.6321580837614,2.647748580934466E-5,0.0018516238776811079
69,967.8393062189976,2.6474691564615237E-5,0.0018780985692457232
70,967.0432204142201,2.623205074025854E-5,0.0019043306199859817
71,966.2451067297133,2.6202245271383208E-5,0.0019305328652573649
72,965.4478885596126,2.6226929762749104E-5,0.001956759795020114
73,964.6397098472007,2.620929290362483E-5,0.001982969087923739
74,963.8262357062528,2.6555835669167128E-5,0.002009524923592906
75,963.0027193653842,2.6618416404901684E-5,0.002036143339997808
76,962.1773682493746,2.662552586155142E-5,0.0020627688658593595
77,961.3535770260944,2.6898745218634E-5,0.0020896676110779932
78,960.5193802874463,2.649212527643045E-5,0.002116159736354424
79,959.6867479533207,2.6591126773236087E-5,0.00214275086312766
80,958.8487536783953,2.6558058460656294E-5,0.0021693089215883165
81,958.0032662420399,2.6705163637177833E-5,0.0021960140852254942
82,957.1421327116867,2.7163952182106173E-5,0.0022231780374076006
83,956.2800067509921,2.7271363225089587E-5,0.00225044940063269
84,955.4079931931963,2.720813209446562E-5,0.0022776575327271556
85,954.5316715501065,2.7089282697723267E-5,0.002304746815424879
86,953.6540875235052,2.724314546616859E-5,0.0023319899608910477
87,952.7664976235626,2.7165813593789675E-5,0.0023591557744848373
88,951.871733090157,2.7260885647599756E-5,0.002386416660132437
89,950.9822732647258,2.7390913694940028E-5,0.002413807573827377
90,950.092199819896,2.7245175842430197E-5,0.002441052749669807
91,949.209243176406,2.744075228633942E-5,0.0024684935019561463
92,948.3132647510071,2.746997062930233E-5,0.0024959634725854486
93,947.4132467969515,2.738573943440675E-5,0.0025233492120198555
94,946.5137334413926,2.7392451432164367E-5,0.00255074166345202
95,945.6177622615901,2.7279045688606006E-5,0.002578020709140626
96,944.7095384198435,2.739117583871423E-5,0.00260541188497934
97,943.8107793341013,2.750927777950309E-5,0.002632921162758843
98,942.9148332257774,2.7239943731880466E-5,0.0026601611064907237
99,942.0164495473044,2.7224014462827202E-5,0.002687385120953551
100,941.0992187195728,2.7174785411778225E-5,0.002714559906365329
101,940.163433043267,2.734043357600177E-5,0.002741900339941331
102,939.2120543782129,2.7160567816750522E-5,0.0027690609077580816
103,938.2616433670157,2.6991114019727575E-5,0.0027960520217778094
104,937.31225970403,2.716790134527972E-5,0.0028232199231230893
105,936.3590993964856,2.697873385897816E-5,0.0028501986569820677
106,935.3958877321373,2.6889871826720398E-5,0.002877088528808788
107,934.4362722321687,2.6863321822086402E-5,0.0029039518506308744
108,933.4767168145465,2.695477655139423E-5,0.002930906627182269
109,932.4969798266749,2.701820244774635E-5,0.002957924829630015
110,931.5029442045496,2.6830259394378914E-5,0.002984755089024394
111,930.5072213205673,2.6796604455450223E-5,0.003011551693479844
112,929.5038828315488,2.6814922273718263E-5,0.0030383666157535625
113,928.4896795109744,2.6627810663620465E-5,0.003064994426417183
114,927.4711823069364,2.6589166479499215E-5,0.003091583592896682
115,926.4607962491733,2.6682807935641163E-5,0.0031182664008323232
116,925.450417184345,2.6677310910880743E-5,0.003144943711743204
117,924.4421957501164,2.6831617449967695E-5,0.003171775329193172
118,923.4231792843414,2.667408003783535E-5,0.003198449409231007
119,922.40123601173,2.6550291631615136E-5,0.0032249997008626224
120,921.3824849468102,2.6751282972207822E-5,0.0032517509838348303
121,920.363699404156,2.6519243843198906E-5,0.003278270227678029
122,919.3515014333852,2.6636980757582763E-5,0.003304907208435612
123,918.3315904342847,2.666769539616031E-5,0.003331574903831772
124,917.331907882894,2.665225006557764E-5,0.0033582271538973494
125,916.3292766451307,2.6813727802153433E-5,0.0033850408816995027
126,915.3199940225466,2.6872293856811168E-5,0.0034119131755563138
127,914.2901731700117,2.6885026198289944E-5,0.0034387982017546038
128,913.2489399485254,2.699858570358715E-5,0.003465796787458191
129,912.1976858099558,2.6887044052822505E-5,0.003492683831511013
130,911.1413505351887,2.683653757952942E-5,0.003519520369090543
131,910.088368757243,2.680537137491824E-5,0.003546325740465461
132,909.0274189852562,2.6732119869916525E-5,0.0035730578603353777
133,907.9539584792104,2.6647355904565782E-5,0.0035997052162399434
134,906.8900852879943,2.6796033328958448E-5,0.003626501249568902
135,905.8241635158882,2.6947653959962074E-5,0.003653448903528864
136,904.7702703511441,2.6838690278840722E-5,0.0036802875938077044
137,903.7043618653099,2.7309465880166756E-5,0.003707597059687871
138,902.6327689421868,2.7233498836259204E-5,0.0037348305585241303
139,901.5633450855448,2.718708473475082E-5,0.0037620176432588814
140,900.4859042719743,2.736212447559959E-5,0.003789379767734481
141,899.3926303895219,2.7422520790172044E-5,0.0038168022885246527
142,898.2921872986251,2.7466058596682598E-5,0.0038442683471213352
143,897.1961006351386,2.7409726173918382E-5,0.0038716780732952535
144,896.1036707892356,2.7529092628234964E-5,0.0038992071659234885
145,895.022143723645,2.7368239325475453E-5,0.003926575405248964
146,893.940880901047,2.7592315162525884E-5,0.00395416772041149
147,892.8633062729386,2.7474098102009075E-5,0.0039816418185134985
148,891.7804218492198,2.7725579607202372E-5,0.004009367398120701
149,890.6781062155748,2.7649323750591764E-5,0.004037016721871293
150,889.5634122474252,2.7723637116911964E-5,0.0040647403589882045
151,888.4507332118177,2.74944213493841E-5,0.004092234780337589
152,887.3327258308747,2.7364870514124334E-5,0.0041195996508517135
153,886.2242618328929,2.7409089789135923E-5,0.00414700874064085
154,885.1042641576691,2.7513351620840292E-5,0.0041745220922616896
155,883.9908287074986,2.7782557069292692E-5,0.004202304649330983
156,882.8645418648688,2.7728540293061253E-5,0.004230033189624044
157,881.7356684369828,2.7656321305648355E-5,0.004257689510929693
158,880.621335036341,2.7658323757624536E-5,0.004285347834687318
159,879.5140338141294,2.738456595429505E-5,0.0043127324006416124
160,878.4099523279683,2.7307398650649338E-5,0.004340039799292262
161,877.2976222352039,2.7338191007303468E-5,0.004367377990299566
162,876.1862821945938,2.721060188127355E-5,0.00439458859218084
163,875.0807716068185,2.6995653864874427E-5,0.004421584246045714
164,873.974897244752,2.691084049483387E-5,0.004448495086540548
165,872.8693885747991,2.7050864648052816E-5,0.004475545951188601
166,871.7753669126427,2.7270312797730566E-5,0.004502816263986332
167,870.6519791761995,2.721302619527742E-5,0.004530029290181609
168,869.5160579223685,2.7394345977185505E-5,0.004557423636158795
169,868.3768458299553,2.736214436775386E-5,0.004584785780526549
170,867.2363145095467,2.7221566485801023E-5,0.00461200734701235
171,866.1008417264579,2.7455489554400796E-5,0.00463946283656675
172,864.9505792332812,2.710096968554623E-5,0.004666563806252297
173,863.7832908977826,2.6939134965816898E-5,0.004693502941218114
174,862.6020150982777,2.6903694732364617E-5,0.004720406635950479
175,861.4223867410977,2.6830456479139484E-5,0.004747237092429618
176,860.2405739266186,2.6633937348925587E-5,0.004773871029778544
177,859.0560994217404,2.691236733909645E-5,0.00480078339711764
178,857.8651190155506,2.691449489749669E-5,0.004827697892015137
179,856.6672232977404,2.679732958307473E-5,0.0048544952215982115
180,855.4713130326284,2.6844081237091848E-5,0.004881339302835303
181,854.2810499856232,2.669837808633706E-5,0.00490803768092164
182,853.0851336666041,2.671084058220024E-5,0.00493474852150384
183,851.8849937594465,2.6690201899691265E-5,0.004961438723403532
184,850.6987632649291,2.6915004016397734E-5,0.00498835372741993
185,849.5259465431183,2.6719040903597457E-5,0.005015072768323527
186,848.3629019562694,2.687649548990574E-5,0.0050419492638134325
187,847.1858924280651,2.6832192686758154E-5,0.005068781456500191
188,845.9955131408216,2.6903707792688486E-5,0.005095685164292879
189,844.8033663080214,2.6854881027461913E-5,0.0051225400453203404
190,843.6127623897177,2.6937855141006434E-5,0.0051494779004613465
191,842.4423336736123,2.695057806410566E-5,0.005176428478525452
192,841.2867093309877,2.6979104081250983E-5,0.0052034075826067035
193,840.1166399804334,2.7154814076686553E-5,0.00523056239668339
194,838.9541474853355,2.724283358908255E-5,0.005257805230272473
195,837.7919990761613,2.707771465130167E-5,0.005284882944923775
196,836.6275016181036,2.6981790243788692E-5,0.0053118647351675635
197,835.4644037535304,2.7042314034683592E-5,0.005338907049202247
198,834.3109487834473,2.669348069132445E-5,0.005365600529893572
199,833.1763548809572,2.6683585591812524E-5,0.005392284115485384
200,832.0343604910479,2.6952219000890694E-5,0.005419236334486275
201,830.8895091577394,2.6601699452860182E-5,0.005445838033939135
202,829.7405299264157,2.652198764955739E-5,0.0054723600215886925
203,828.5871390870269,2.6258392357982006E-5,0.005498618413946675
204,827.4250148741377,2.619065091778398E-5,0.005524809064864459
205,826.2573580001044,2.6369720136519465E-5,0.005551178785000978
206,825.1100736949921,2.6782845552320603E-5,0.005577961630553298
207,823.9815731963827,2.6909326162946646E-5,0.005604870956716245
208,822.865508728635,2.6763728224637325E-5,0.005631634684940883
209,821.7649775373901,2.6611852931392184E-5,0.005658246537872275
210,820.6503144772939,2.686139193523728E-5,0.005685107929807512
211,819.5284661646747,2.710774796440999E-5,0.0057122156777719224
212,818.4089735132943,2.7170079698171757E-5,0.005739385757470094
213,817.293936469951,2.7293497902196304E-5,0.00576667925537229
214,816.1912616275592,2.7054536879992512E-5,0.005793733792252283
215,815.0966907667699,2.691273298815596E-5,0.0058206465252404384
216,813.9969862169434,2.7126911031522815E-5,0.005847773436271961
217,812.8876968698698,2.7080203643897445E-5,0.005874853639915858
218,811.7811942221966,2.7316894788046497E-5,0.005902170534703905
219,810.6650744487732,2.7338949317471185E-5,0.005929509484021376
220,809.5263769914363,2.7281670965202752E-5,0.005956791154986579
221,808.3943724444064,2.7107158236789045E-5,0.005983898313223368
222,807.2569298487953,2.6924648417557127E-5,0.006010822961640925
223,806.1198931190405,2.6867657241650032E-5,0.006037690618882575
224,804.9926081104744,2.6858891161038253E-5,0.006064549510043613
225,803.8582128921082,2.6682157226505215E-5,0.006091231667270118
226,802.7078578083967,2.6786553112757853E-5,0.006118018220382876
227,801.5602433956647,2.6815373066439577E-5,0.0061448335934493154
228,800.430429422076,2.673705826109456E-5,0.00617157065171041
229,799.3210995067191,2.6954390362455562E-5,0.006198525042072866
230,798.2203575590886,2.6953840437322605E-5,0.006225478882510189
231,797.1066467643276,2.701808725594618E-5,0.006252496969766135
232,795.98201868099,2.695554344074324E-5,0.0062794525132068785
233,794.8498662451564,2.707614023022841E-5,0.006306528653437107
234,793.7292324925045,2.70978220471947E-5,0.006333626475484301
235,792.5944432048886,2.687774775621226E-5,0.006360504223240514
236,791.4535041605229,2.689105580743129E-5,0.006387395279047945
237,790.2934527040828,2.6797947797499374E-5,0.006414193226845445
238,789.1318055805581,2.706249229036446E-5,0.006441255719135809
239,787.982724904998,2.731451333879077E-5,0.006468570232474599
240,786.8281912880899,2.7180326387738197E-5,0.006495750558862337
241,785.6817300008008,2.72472789293008E-5,0.006522997837791638
242,784.5568643612398,2.7243298663924372E-5,0.006550241136455562
243,783.4571071985963,2.7400101618201113E-5,0.006577641238073763
244,782.3646266891532,2.7291535609031665E-5,0.006604932773682795
245,781.2478788605634,2.7332956148477585E-5,0.006632265729831273
246,780.1182928585798,2.7142397941708654E-5,0.006659408127772982
247,778.9867630367885,2.7171415515249606E-5,0.006686579543288231
248,777.8731222117851,2.7180697491580908E-5,0.006713760240779812
249,776.7534537233047,2.7257895622447686E-5,0.00674101813640226
250,775.6568446866729,2.7294717906997193E-5,0.006768312854309257
251,774.5555637544962,2.743695514974665E-5,0.0067957498094590035
252,773.4919476684499,2.7633454484101088E-5,0.006823383263943105
253,772.4232740093834,2.783183501655498E-5,0.00685121509895966
254,771.3542668198104,2.783665514148206E-5,0.0068790517541011415
255,770.2802665887932,2.757280790310522E-5,0.006906624562004247
256,769.1983048798818,2.7810177888588127E-5,0.006934434739892835
257,768.0997508046438,2.7932663010374805E-5,0.00696236740290321
258,766.9893225549173,2.8035298781608963E-5,0.0069904027016848185
259,765.9407143963522,2.80439201563877E-5,0.007018446621841206
260,764.9131710675828,2.7933250806097385E-5,0.0070463798726473036
261,763.8926242039112,2.787309842249113E-5,0.0070742529710697945
262,762.8944601021191,2.782418683999441E-5,0.007102077157909789
263,761.8384476698095,2.7913821246895075E-5,0.007129990979156684
264,760.7746083204036,2.7997065999962002E-5,0.0071579880451566455
265,759.7094786843959,2.761157550871552E-5,0.007185599620665361
266,758.620753997052,2.7165025944655094E-5,0.007212764646610016
267,757.5400699656151,2.7086685009291286E-5,0.007239851331619308
268,756.4811039727521,2.683096076222214E-5,0.00726668229238153
269,755.4455043545988,2.6934470935484074E-5,0.007293616763317014
270,754.4301277618102,2.684436917623249E-5,0.007320461132493247
271,753.416260458479,2.6841706545902533E-5,0.007347302839039149
272,752.4065158881452,2.6717609579449477E-5,0.007374020448618598
273,751.4126665117454,2.6903386370579715E-5,0.007400923834989178
274,750.4105554059554,2.6686700513488137E-5,0.007427610535502666
275,749.409400649081,2.6793532608568085E-5,0.007454404068111234
276,748.3907245277918,2.682948333955367E-5,0.007481233551450788
277,747.3488495822394,2.690522768817217E-5,0.00750813877913896
278,746.2944380755691,2.7029725006596965E-5,0.007535168504145557
279,745.2435499324757,2.718681484536044E-5,0.007562355318990918
280,744.2061165251596,2.7195796449238835E-5,0.0075895511154401565
281,743.144512825393,2.708797190621103E-5,0.007616639087346368
282,742.0859678135309,2.7391293348259826E-5,0.007644030380694627
283,741.0190707409903,2.7290620783972067E-5,0.007671321001478599
284,739.9557112625112,2.7103711710715818E-5,0.0076984247131893155
285,738.8897548895329,2.71878573850316E-5,0.007725612570574347
286,737.8408319736336,2.7080459248811E-5,0.0077526930298231584
287,736.7679315843889,2.7082129964380623E-5,0.007779775159787539
288,735.6910652082838,2.7288110338857138E-5,0.0078070632701263964
289,734.6176438820307,2.7134731116664187E-5,0.00783419800124306
290,733.5444610466508,2.6983955742675742E-5,0.007861181956985736
291,732.454230345589,2.7132147452293936E-5,0.00788831410443803
292,731.363730683919,2.698198008680593E-5,0.007915296084524836
293,730.2580395907336,2.697761479765414E-5,0.00794227369932249
294,729.1622693839809,2.6986276866283835E-5,0.007969259976188773
295,728.0612819498808,2.6932592029137207E-5,0.007996192568217911
296,726.9542253655613,2.6927988264057108E-5,0.008023120556481968
297,725.845506441273,2.6821879332255034E-5,0.008049942435814222
298,724.7342287759232,2.6966776743199415E-5,0.008076909212557421
299,723.6433515846018,2.7036912038467718E-5,0.00810394612459589
300,722.5544837351237,2.7560328288418755E-5,0.008131506452884308
301,721.4639796330547,2.7709328423870692E-5,0.008159215781308179
302,720.3633515907886,2.7449386772221415E-5,0.0081866651680804
303,719.2402420327348,2.74687970449827E-5,0.008214133965125383
304,718.1214356309474,2.7453629455073157E-5,0.008241587594580456
305,717.0127366276712,2.7535541380376516E-5,0.008269123135960833
306,715.8873973726998,2.7389269070511265E-5,0.008296512405031344
307,714.7679231859794,2.7479670813345653E-5,0.00832399207584469
308,713.6307254634555,2.7381338837244345E-5,0.008351373414681935
309,712.527059825513,2.721760278716118E-5,0.008378591017469097
