#t,ESS,tempDiff,temp
0,999.9999999999848,0.0,0.0
1,999.989999999997,2.6940001441226542E-5,2.6940001441226542E-5
2,999.9604013352799,2.688175157640186E-5,5.382175301762841E-5
3,999.9115954182702,2.6707124116940975E-5,8.052887713456939E-5
4,999.8441166419029,2.685615997799387E-5,1.0738503711256326E-4
5,999.7579165751728,2.698121120431209E-5,1.3436624831687536E-4
6,999.6533267591069,2.721947215875233E-5,1.6158572047562768E-4
7,999.531515972327,2.7364515414042667E-5,1.8895023588967033E-4
8,999.392110032647,2.7099758458213944E-5,2.1604999434788428E-4
9,999.2357969505601,2.731140591688142E-5,2.433614002647657E-4
10,999.0626516037929,2.7207553432618153E-5,2.7056895369738387E-4
11,998.8732154307615,2.7251448992908588E-5,2.978204026902925E-4
12,998.6672094357594,2.7264790727834462E-5,3.250851934181269E-4
13,998.4453558404176,2.713828680849048E-5,3.522234802266174E-4
14,998.208602456878,2.711346791827287E-5,3.7933694814489027E-4
15,997.956238438393,2.713030997242349E-5,4.0646725811731375E-4
16,997.6876841788865,2.6951629152961195E-5,4.334188872702749E-4
17,997.4048834739763,2.68427218194189E-5,4.6026160908969383E-4
18,997.107287838099,2.6754584522585897E-5,4.8701619361227975E-4
19,996.7956208282083,2.6730410180054117E-5,5.137466037923339E-4
20,996.4715741572372,2.6508101710083895E-5,5.402547055024178E-4
21,996.1335773762758,2.643389179755573E-5,5.666885972999735E-4
22,995.7804405043926,2.658139964426617E-5,5.932699969442396E-4
23,995.4137996175306,2.660908901605808E-5,6.198790859602977E-4
24,995.0335044231342,2.6681082786842947E-5,6.465601687471407E-4
25,994.642900337953,2.6998450583339054E-5,6.735586193304798E-4
26,994.2390810891467,2.6956144585521304E-5,7.00514763916001E-4
27,993.8231921375301,2.6958797218592633E-5,7.274735611345937E-4
28,993.3966458129299,2.702885057368434E-5,7.54502411708278E-4
29,992.9590244777521,2.701326120827405E-5,7.815156729165521E-4
30,992.5105588693491,2.710864094743192E-5,8.08624313863984E-4
31,992.0487519047665,2.710207503239609E-5,8.357263888963801E-4
32,991.5732374338376,2.7276736232715202E-5,8.630031251290953E-4
33,991.0866636075868,2.7076765167982174E-5,8.900798902970775E-4
34,990.5906865444587,2.6834973975352377E-5,9.169148642724299E-4
35,990.0859645729016,2.6670713125940302E-5,9.435855773983702E-4
36,989.5681350453955,2.6602885508699265E-5,9.701884629070694E-4
37,989.0372195472064,2.6602968195254107E-5,9.967914311023235E-4
38,988.4976783237078,2.6503278586584327E-5,0.0010232947096889078
39,987.949553931094,2.6465401132992974E-5,0.0010497601108219008
40,987.39099711999,2.6495060491560376E-5,0.0010762551713134612
41,986.8193478421225,2.638065160961555E-5,0.0011026358229230767
42,986.2384013788018,2.626860349018968E-5,0.0011289044264132665
43,985.6456709016222,2.6185298869170976E-5,0.0011550897252824374
44,985.0394368447752,2.6104881555733346E-5,0.0011811946068381706
45,984.4192597242786,2.6007691133046894E-5,0.0012072022979712175
46,983.7945730162704,2.6065983038235834E-5,0.0012332682810094534
47,983.160479245027,2.610657574461125E-5,0.0012593748567540646
48,982.5206997798097,2.6192722310060206E-5,0.0012855675790641248
49,981.874324611897,2.6035860082225472E-5,0.0013116034391463503
50,981.2271338866437,2.606265492637899E-5,0.0013376660940727294
51,980.5727967652149,2.5936221622515553E-5,0.001363602315695245
52,979.9112715830155,2.593229567353668E-5,0.0013895346113687815
53,979.240533888431,2.582441505490643E-5,0.001415359026423688
54,978.5667305624215,2.5921263686546425E-5,0.0014412802901102345
55,977.8873659129371,2.5807438323220048E-5,0.0014670877284334546
56,977.1955327623216,2.5953507926565642E-5,0.0014930412363600202
57,976.4914682364073,2.5774780251934563E-5,0.0015188160166119547
58,975.7771443658253,2.5901448687798363E-5,0.001544717465299753
59,975.0551935962012,2.5836283627952696E-5,0.0015705537489277058
60,974.316712410773,2.5734041011757515E-5,0.0015962877899394633
61,973.5743060530065,2.5717792121897966E-5,0.0016220055820613613
62,972.8226148230452,2.5684718269911105E-5,0.0016476903003312725
63,972.0587342646484,2.5572309766544394E-5,0.001673262610097817
64,971.2853342255054,2.5378997457242792E-5,0.0016986416075550597
65,970.5059385983369,2.5324805134396785E-5,0.0017239664126894566
66,969.7168098161904,2.535465553291443E-5,0.001749321068222371
67,968.9189778232823,2.5270332038429077E-5,0.0017745914002608
68,968.106217695723,2.5257942238573056E-5,0.0017998493424993731
69,967.2834175433677,2.5338325507791315E-5,0.0018251876680071644
70,966.4614564609288,2.5400596370330622E-5,0.001850588264377495
71,965.6325539509867,2.5284711245760937E-5,0.0018758729756232558
72,964.7932699629139,2.541316650022138E-5,0.0019012861421234771
73,963.9473456705609,2.564479318499175E-5,0.0019269309353084688
74,963.0872016942528,2.5456085165346473E-5,0.0019523870204738152
75,962.2179722723499,2.543946807155198E-5,0.001977826488545367
76,961.3390390230719,2.5646748942582002E-5,0.002003473237487949
77,960.4537555643634,2.5567643217653908E-5,0.002029040880705603
78,959.5665739488319,2.5682661994956803E-5,0.0020547235427005595
79,958.6744418407212,2.5960354531903125E-5,0.0020806838972324626
80,957.7777495803015,2.5728210154753644E-5,0.002106412107387216
81,956.8661915558993,2.5777769687195713E-5,0.002132189877074412
82,955.9459739201026,2.5768230245473598E-5,0.0021579581073198854
83,955.0330535871955,2.5963250242191408E-5,0.002183921357562077
84,954.1260265375607,2.596411520227838E-5,0.0022098854727643554
85,953.2195315807835,2.5971629337446535E-5,0.002235857102101802
86,952.3070742472903,2.570367247181171E-5,0.0022615607745736137
87,951.3883027802607,2.5724776304505267E-5,0.002287285550878119
88,950.4570423952076,2.5587608253291377E-5,0.0023128731591314108
89,949.5287807325951,2.5727098081119435E-5,0.00233860025721253
90,948.5863682873204,2.592602166034509E-5,0.0023645262788728754
91,947.6414275853161,2.593717705360824E-5,0.0023904634559264834
92,946.6988853205643,2.593161183577116E-5,0.0024163950677622546
93,945.7533982758513,2.6029366468071707E-5,0.002442424434230326
94,944.795983050676,2.605906812804166E-5,0.0024684835023583676
95,943.8501115758487,2.605497514227634E-5,0.0024945384775006438
96,942.9003564690547,2.6405643551924935E-5,0.002520944121052569
97,941.9472054239404,2.6135042742705757E-5,0.0025470791637952745
98,940.9756816604712,2.6264329963920094E-5,0.0025733434937591946
99,939.984283164762,2.612413819042026E-5,0.002599467631949615
100,938.9764362672512,2.5925211012070135E-5,0.002625392842961685
101,937.9580994459553,2.591546182038453E-5,0.0026513083047820696
102,936.9304068431665,2.5975081724927167E-5,0.002677283386506997
103,935.8962862593202,2.6049595405565747E-5,0.0027033329819125627
104,934.8639662942842,2.624161813690215E-5,0.0027295746000494648
105,933.8310111331281,2.638839240400415E-5,0.002755962992453469
106,932.8196009058877,2.6537210651271983E-5,0.002782500203104741
107,931.8018329056226,2.6283911438466047E-5,0.0028087841145432073
108,930.797816107298,2.6554157153966337E-5,0.0028353382716971736
109,929.7973702974303,2.6417462696850043E-5,0.0028617557343940236
110,928.7841016606365,2.6457013574881715E-5,0.0028882127479689054
111,927.7668821119485,2.669032518106573E-5,0.0029149030731499713
112,926.749847893982,2.6859057205172807E-5,0.002941762130355144
113,925.7378048155941,2.669236581460734E-5,0.0029684544961697513
114,924.7124735220448,2.687828515488651E-5,0.0029953327813246377
115,923.6933529579906,2.6546854601911735E-5,0.0030218796359265496
116,922.6604176893339,2.6879831064117637E-5,0.0030487594669906673
117,921.6302835753962,2.7432589270381565E-5,0.003076192056261049
118,920.5914113535204,2.7652954302947278E-5,0.0031038450105639963
119,919.5556782743707,2.7690252913681745E-5,0.003131535263477678
120,918.5129183884952,2.7926286980463993E-5,0.003159461550458142
121,917.4735680844987,2.7785581995861585E-5,0.0031872471324540033
122,916.4458553896741,2.8055314028212147E-5,0.0032153024464822155
123,915.4182313715964,2.7575060190831455E-5,0.003242877506673047
124,914.3852077114915,2.7567056241002004E-5,0.003270444562914049
125,913.3453888339405,2.7589299952794464E-5,0.0032980338628668436
126,912.2923446108706,2.7680417569378793E-5,0.0033257142804362224
127,911.2478065887268,2.7556010548382797E-5,0.003353270290984605
128,910.2166111059895,2.7666430152726016E-5,0.003380936721137331
129,909.1754333283296,2.7840666246181405E-5,0.0034087773873835124
130,908.134475215041,2.7731611330964972E-5,0.0034365089987144774
131,907.0984352160082,2.759001806865427E-5,0.0034640990167831317
132,906.0613102570802,2.751928495184086E-5,0.0034916183017349727
133,905.0243976983735,2.7493439051448554E-5,0.003519111740786421
134,903.9967532087858,2.7687052107371248E-5,0.003546798792893792
135,902.9642412909656,2.765801391716574E-5,0.003574456806810958
136,901.9313359565172,2.7567692980126294E-5,0.0036020244997910845
137,900.8820056208336,2.7465622940378116E-5,0.0036294901227314626
138,899.8376047908413,2.718197186359554E-5,0.003656672094595058
139,898.7990885706179,2.7462018733086374E-5,0.0036841341133281445
140,897.7555133942055,2.7575675927127918E-5,0.0037117097892552724
141,896.7157741743564,2.737159583851146E-5,0.0037390813850937837
142,895.6767889501833,2.7165964308246022E-5,0.00376624734940203
143,894.6532838799898,2.705643656765849E-5,0.0037933037859696882
144,893.620705592369,2.6997906953066687E-5,0.003820301692922755
145,892.5852966545758,2.7055983321208002E-5,0.003847357676243963
146,891.5347830095428,2.694249698396218E-5,0.0038743001732279253
147,890.4960358989246,2.687161023673425E-5,0.0039011717834646596
148,889.4256183125162,2.677353008533778E-5,0.003927945313549997
149,888.3549232340403,2.7050225755562038E-5,0.003954995539305559
150,887.2802336357968,2.7238916712714262E-5,0.003982234456018273
151,886.2056812664699,2.7297094319308673E-5,0.004009531550337581
152,885.1296048670711,2.747880355914858E-5,0.00403701035389673
153,884.0550340517699,2.7393021302402957E-5,0.004064403375199133
154,882.9678591333526,2.713544987107986E-5,0.004091538825070213
155,881.8981708364969,2.7063964439580787E-5,0.004118602789509794
156,880.8324562040948,2.6975883002760986E-5,0.004145578672512555
157,879.774723890526,2.6833665042074486E-5,0.0041724123375546296
158,878.7170944626553,2.6846080827870076E-5,0.0041992584183825
159,877.647727552764,2.684464189305435E-5,0.004226103060275554
160,876.5754558249855,2.689867767125639E-5,0.004253001737946811
161,875.5101291800968,2.6694989103168065E-5,0.004279696727049979
162,874.4081482601392,2.6493938609865736E-5,0.004306190665659845
163,873.3130549864316,2.639646003254098E-5,0.004332587125692386
164,872.2029614251475,2.6383633098272572E-5,0.004358970758790658
165,871.0657666740594,2.62071588763328E-5,0.004385177917666991
166,869.9375075413767,2.6207100556269937E-5,0.004411385018223261
167,868.793309555635,2.646568826492752E-5,0.004437850706488188
168,867.6522887633938,2.650971641064813E-5,0.004464360422898836
169,866.5254284953292,2.6693444150273302E-5,0.00449105386704911
170,865.4092927253994,2.6791971428261628E-5,0.004517845838477371
171,864.3213252888802,2.6748609603823057E-5,0.0045445944480811944
172,863.2212486217819,2.643054599187031E-5,0.004571024994073065
173,862.1280816636856,2.652740169325682E-5,0.004597552395766322
174,861.0167249174673,2.648697442961527E-5,0.004624039370195937
175,859.9113317811527,2.6642186409081855E-5,0.004650681556605019
176,858.8127413816511,2.6652999687505284E-5,0.004677334556292524
177,857.705358596742,2.664032287149874E-5,0.004703974879164023
178,856.5915881640234,2.6621582679935685E-5,0.004730596461843959
179,855.4492376969265,2.6592879003784086E-5,0.0047571893408477435
180,854.3075940518358,2.683197186154053E-5,0.004784021312709284
181,853.1672414501808,2.691150767004711E-5,0.004810932820379331
182,852.0158383783514,2.6854688982722783E-5,0.004837787509362054
183,850.8524824644959,2.7064897388954047E-5,0.004864852406751008
184,849.6738076639192,2.6978789780055474E-5,0.004891831196531063
185,848.5182074036212,2.6820846428620154E-5,0.0049186520429596835
186,847.3861266889871,2.6778736242419095E-5,0.004945430779202103
187,846.2561047841872,2.6692645114348332E-5,0.004972123424316451
188,845.1259765940093,2.6897115909087914E-5,0.004999020540225539
189,843.9900049439971,2.7007386882399083E-5,0.005026027927107938
190,842.8566558004768,2.6949688728280118E-5,0.005052977615836218
191,841.7196242438297,2.6935855085861268E-5,0.005079913470922079
192,840.6097829745997,2.7039758542270943E-5,0.00510695322946435
193,839.4837594196754,2.7038213204463552E-5,0.005133991442668814
194,838.3669627573021,2.6897430338987217E-5,0.005160888873007801
195,837.237016772405,2.6733568414609163E-5,0.00518762244142241
196,836.1149914600996,2.6438174743323137E-5,0.005214060616165733
197,835.0061145273011,2.6172817826206763E-5,0.00524023343399194
198,833.8590450542132,2.5982719539471455E-5,0.005266216153531411
199,832.7222680638687,2.606828780908333E-5,0.005292284441340495
200,831.5823040700456,2.6040036933204733E-5,0.005318324478273699
201,830.4655109517875,2.6190406640525883E-5,0.005344514884914225
202,829.3517066251395,2.637417352734544E-5,0.00537088905844157
203,828.2179413686815,2.6237453792103246E-5,0.005397126512233673
204,827.0768327513582,2.592305052448454E-5,0.005423049562758158
205,825.9375601037942,2.5936792167668014E-5,0.005448986354925826
206,824.8100650992563,2.5928773897711956E-5,0.005474915128823538
207,823.681800768845,2.572394367491692E-5,0.005500639072498455
208,822.5359339986701,2.5947496864272495E-5,0.005526586569362727
209,821.4056174355513,2.6042682480110788E-5,0.005552629251842838
210,820.2525877077654,2.6131063635014394E-5,0.0055787603154778525
211,819.0775706055219,2.5930529037700536E-5,0.005604690844515553
212,817.8842384603811,2.6076802727821116E-5,0.0056307676472433735
213,816.7115611656102,2.5983328970271093E-5,0.005656750976213645
214,815.5131373981491,2.592768310607374E-5,0.005682678659319719
215,814.3492395454786,2.5987170598930297E-5,0.005708665829918649
216,813.1786400320207,2.6121339728403303E-5,0.005734787169647052
217,811.9931178498825,2.617244046299554E-5,0.005760959610110048
218,810.7956496599984,2.5966941042953013E-5,0.005786926551153001
219,809.5961549302976,2.6031794842111077E-5,0.005812958345995112
220,808.4026128262948,2.6231857668520267E-5,0.005839190203663632
221,807.2055854430657,2.613313947453024E-5,0.005865323343138162
222,806.0018802308167,2.6138907340877223E-5,0.0058914622504790395
223,804.7954569000844,2.615027312951205E-5,0.0059176125236085515
224,803.5735927926473,2.610756422939993E-5,0.005943720087837952
225,802.3431872789781,2.606004791017316E-5,0.005969780135748125
226,801.1106149431891,2.617887749784033E-5,0.005995959013245965
227,799.8910160396593,2.601208919561795E-5,0.006021971102441582
228,798.6664793795867,2.6024290099350883E-5,0.006047995392540933
229,797.462045752476,2.5914871298485038E-5,0.006073910263839418
230,796.2329766873396,2.5966194491769375E-5,0.006099876458331188
231,794.9929809805334,2.5884522683169273E-5,0.0061257609810143575
232,793.7503955721444,2.5730858403410835E-5,0.006151491839417768
233,792.5011421618182,2.5828520266551748E-5,0.00617732035968432
234,791.2480364134024,2.606105012252004E-5,0.0062033814098068395
235,789.9731384868577,2.6077908470909358E-5,0.0062294593182777485
236,788.6810261892848,2.578838843743033E-5,0.006255247706715179
237,787.4021601173649,2.5882909827826618E-5,0.006281130616543005
238,786.1456053507925,2.584892838221294E-5,0.0063069795449252185
239,784.8956203472048,2.5794470494212452E-5,0.006332774015419431
240,783.6387569347515,2.5747084576575546E-5,0.006358521099996006
241,782.3949513725099,2.5749092461826312E-5,0.006384270192457833
242,781.1621017976721,2.5610917975554346E-5,0.006409881110433387
243,779.891683034103,2.56425914345071E-5,0.006435523701867895
244,778.613776233614,2.5784385707810505E-5,0.006461308087575705
245,777.3448415488997,2.6194203029864602E-5,0.00648750229060557
246,776.0582598048782,2.6209436811943735E-5,0.0065137117274175135
247,774.7948791772935,2.6576929139268763E-5,0.006540288656556782
248,773.5592206252791,2.6607739036409734E-5,0.006566896395593192
249,772.3374340592046,2.6653055007424506E-5,0.0065935494506006165
250,771.108743503689,2.6699663701288152E-5,0.006620249114301905
251,769.879043707397,2.7005880996519728E-5,0.006647254995298424
252,768.6791691717191,2.72206781351411E-5,0.006674475673433566
253,767.4986313317968,2.7145101826534474E-5,0.0067016207752601
254,766.323096714286,2.7093306924283856E-5,0.006728714082184384
255,765.1745011090944,2.701601151516468E-5,0.006755730093699549
256,764.0144714872482,2.699435271342776E-5,0.006782724446412976
257,762.8798472042338,2.7027292672306628E-5,0.006809751739085283
258,761.7332128803985,2.7142707036145728E-5,0.0068368944461214285
259,760.5608220042024,2.6940511995881848E-5,0.00686383495811731
260,759.3898037614777,2.6960724161391947E-5,0.006890795682278702
261,758.2296741449233,2.6962935829432946E-5,0.006917758618108135
262,757.0553530152616,2.6774711944610787E-5,0.0069445333300527465
263,755.8534500502406,2.6692431447665803E-5,0.006971225761500412
264,754.6544610850656,2.6365127808187013E-5,0.0069975908893085996
265,753.4642382955059,2.6580848235550267E-5,0.00702417173754415
266,752.2858353406632,2.6477389842790357E-5,0.00705064912738694
267,751.0994834194287,2.639601276932456E-5,0.007077045140156265
268,749.9301355595151,2.6380138615718325E-5,0.007103425278771983
269,748.7843804333371,2.659976325056398E-5,0.007130025042022547
270,747.6355181366496,2.644743585737694E-5,0.007156472477879924
271,746.4923700132413,2.6783532706756213E-5,0.00718325601058668
272,745.3886190326347,2.6842187259117214E-5,0.007210098197845797
273,744.2841450881067,2.698114229455185E-5,0.007237079340140349
274,743.1862691930734,2.70088405263696E-5,0.007264088180666718
275,742.1047330367616,2.741156564606544E-5,0.007291499746312783
276,741.0244715828102,2.7078745191586498E-5,0.007318578491504369
277,739.9419460477527,2.713021157124876E-5,0.007345708703075618
278,738.8468529687722,2.7158722380450047E-5,0.007372867425456068
279,737.7289330516825,2.7162138247703865E-5,0.007400029563703772
280,736.6364899779625,2.7288146431455378E-5,0.007427317710135227
281,735.5476979508796,2.732186596140165E-5,0.007454639576096629
282,734.4750614841818,2.713875905780832E-5,0.007481778335154437
283,733.4197903898219,2.6942049637697148E-5,0.007508720384792134
284,732.3618084603158,2.665419784775309E-5,0.007535374582639887
285,731.3347204728296,2.6716285005445276E-5,0.007562090867645332
286,730.3374387421842,2.6879902094619844E-5,0.007588970769739952
287,729.3402212052342,2.7035881159357666E-5,0.00761600665089931
288,728.3432182294937,2.673444510038384E-5,0.007642741095999694
289,727.3526859244035,2.647322850346911E-5,0.007669214324503163
290,726.3597017085414,2.6265068246577047E-5,0.00769547939274974
291,725.3622624948599,2.6496739812307158E-5,0.007721976132562047
292,724.3952744819945,2.6313992389452428E-5,0.007748290124951499
293,723.432601462733,2.613776234473377E-5,0.0077744278872962334
294,722.4886844180905,2.625980171847545E-5,0.007800687689014709
295,721.555978297761,2.6385978040665138E-5,0.007827073667055373
296,720.6523287031945,2.634023677083291E-5,0.007853413903826207
297,719.7469438068447,2.6660445382938614E-5,0.007880074349209145
298,718.8841496361514,2.671774269779266E-5,0.007906792091906938
299,718.0293364776394,2.6640827603231147E-5,0.007933432919510168
300,717.1580277634285,2.659047176880378E-5,0.007960023391278973
301,716.2799131958026,2.6624834852812632E-5,0.007986648226131786
302,715.3670831841986,2.649500671734222E-5,0.008013143232849127
303,714.4725639652743,2.6509111881088063E-5,0.008039652344730216
304,713.5937811673583,2.669532024820811E-5,0.008066347664978425
305,712.6856035743301,2.6511028742925782E-5,0.00809285869372135
306,711.7709179293558,2.631871400814521E-5,0.008119177407729496
307,710.8515473578482,2.6491532898216393E-5,0.008145668940627713
308,709.9355779388196,2.624337064341997E-5,0.008171912311271132
309,709.0034027194629,2.6178735803519286E-5,0.00819809104707465
