#t,ESS,tempDiff,temp
0,999.9999999999848,0.0,0.0
1,999.9899999999992,2.8520571171087272E-5,2.8520571171087272E-5
2,999.9603587545694,2.8467909087656943E-5,5.6988480258744215E-5
3,999.9114991250117,2.832197230214875E-5,8.531045256089296E-5
4,999.8437725875183,2.84328529390168E-5,1.1374330549990976E-4
5,999.7576942788149,2.819973585996275E-5,1.419430413598725E-4
6,999.6535016778327,2.8011294030191565E-5,1.6995433539006408E-4
7,999.5317884088398,2.8128826551103226E-5,1.980831619411673E-4
8,999.3924755999722,2.7685909228129374E-5,2.2576907116929668E-4
9,999.2358110931985,2.7923868565287794E-5,2.536929397345845E-4
10,999.0623056531294,2.8005958654276432E-5,2.8169889838886096E-4
11,998.8727816678737,2.803238793725709E-5,3.0973128632611803E-4
12,998.6662044557726,2.8120999915332237E-5,3.378522862414503E-4
13,998.4448192787946,2.819357375476194E-5,3.660458599962122E-4
14,998.2077714235533,2.7969116162800857E-5,3.940149761590131E-4
15,997.9552115575453,2.8193720133891683E-5,4.2220869629290477E-4
16,997.68930718999,2.848702843221803E-5,4.506957247251228E-4
17,997.4086017053467,2.8379246486005947E-5,4.7907497121112873E-4
18,997.1141473711443,2.8381316679379322E-5,5.074562878905081E-4
19,996.8060969657729,2.8188594116864482E-5,5.356448820073726E-4
20,996.4850552246169,2.827448987951376E-5,5.639193718868864E-4
21,996.1504075787815,2.8359147583011683E-5,5.922785194698981E-4
22,995.8029832168564,2.827439179697157E-5,6.205529112668697E-4
23,995.4422252538118,2.832719699040197E-5,6.488801082572716E-4
24,995.0689387187554,2.854841688118632E-5,6.77428525138458E-4
25,994.6831042985331,2.844711834141798E-5,7.05875643479876E-4
26,994.2832471768505,2.827638776286629E-5,7.341520312427422E-4
27,993.8725121074143,2.8086552965731152E-5,7.622385842084733E-4
28,993.449758224725,2.790231292916152E-5,7.901408971376348E-4
29,993.0126206275338,2.7859849851132297E-5,8.180007469887671E-4
30,992.5639646677547,2.7769922147535484E-5,8.457706691363026E-4
31,992.1045503653751,2.7926309229188154E-5,8.736969783654907E-4
32,991.6341256541441,2.769918420532298E-5,9.013961625708136E-4
33,991.1520799262696,2.774817181765397E-5,9.291443343884676E-4
34,990.6570572619036,2.7611026439659016E-5,9.567553608281266E-4
35,990.1502387551153,2.749013685121061E-5,9.84245497679337E-4
36,989.634969641052,2.749723279651817E-5,0.0010117427304758553
37,989.1094262732332,2.755086468607683E-5,0.001039293595161932
38,988.5732327607901,2.7480728583672256E-5,0.0010667743237456043
39,988.0321945105338,2.7256764788493228E-5,0.0010940310885340975
40,987.4786373682981,2.749375504433258E-5,0.00112152484357843
41,986.9131038113148,2.7199589593127696E-5,0.0011487244331715577
42,986.3358505750628,2.6931711856091645E-5,0.0011756561450276494
43,985.7487964627919,2.7235300209008334E-5,0.0012028914452366576
44,985.1464338082152,2.7301523329476324E-5,0.001230192968566134
45,984.5280980132653,2.7044799977580938E-5,0.0012572377685437148
46,983.9064520771843,2.7423344399680332E-5,0.0012846611129433952
47,983.2733851907672,2.7323817912645946E-5,0.001311984930856041
48,982.6320317967749,2.739070424714167E-5,0.0013393756351031828
49,981.978546720842,2.719086074733358E-5,0.0013665664958505163
50,981.3194834305623,2.6891720330995648E-5,0.001393458216181512
51,980.6480620450858,2.6918388603654337E-5,0.0014203766047851663
52,979.9664371059773,2.6984905147414274E-5,0.0014473615099325806
53,979.2780788575615,2.716349285425761E-5,0.0014745250027868382
54,978.5880934161581,2.7224973492413558E-5,0.0015017499762792518
55,977.8926261265892,2.7420643340078037E-5,0.0015291706196193299
56,977.1914652385997,2.7378610024924554E-5,0.0015565492296442543
57,976.4802717236139,2.7685410687264534E-5,0.0015842346403315188
58,975.7624438865054,2.7779181065812188E-5,0.001612013821397331
59,975.0458922678414,2.7633552043303646E-5,0.0016396473734406347
60,974.3169412964297,2.7408263736053964E-5,0.0016670556371766886
61,973.5823945869207,2.742386697147935E-5,0.001694479504148168
62,972.8425766269277,2.7343791318113756E-5,0.0017218232954662816
63,972.0938300753793,2.739968775103217E-5,0.0017492229832173137
64,971.3436192590946,2.7170393472810224E-5,0.001776393376690124
65,970.5794223769444,2.7277615915312712E-5,0.0018036709926054367
66,969.7998379065739,2.7341721986862464E-5,0.001831012714592299
67,969.0219104588667,2.7376040995860447E-5,0.0018583887555881596
68,968.232623412345,2.7280469119731532E-5,0.0018856692247078912
69,967.4341172005978,2.69215978929134E-5,0.0019125908226008046
70,966.6259866865516,2.660872484730162E-5,0.0019391995474481061
71,965.8126668093913,2.6535141899026864E-5,0.001965734689347133
72,964.9953592742079,2.6549864213547638E-5,0.0019922845535606808
73,964.1750180441688,2.6479510349006953E-5,0.0020187640639096876
74,963.3459789654936,2.6381962640838963E-5,0.0020451460265505264
75,962.5016712021596,2.6406226371505353E-5,0.002071552252922032
76,961.6508684671734,2.6388631531542714E-5,0.0020979408844535746
77,960.8023985100978,2.606258700892546E-5,0.0021240034714625
78,959.954649262353,2.593023929573792E-5,0.0021499337107582376
79,959.0993126646413,2.5790026388424207E-5,0.002175723737146662
80,958.2259533694622,2.5818118053864853E-5,0.0022015418552005267
81,957.3522682957512,2.584289126718787E-5,0.0022273847464677147
82,956.4681628600559,2.5819246883213916E-5,0.0022532039933509285
83,955.5756048941056,2.5911150960645538E-5,0.002279115144311574
84,954.6800245157839,2.5841463621922265E-5,0.002304956607933496
85,953.7855427811169,2.6164366434238684E-5,0.002331120974367735
86,952.8844655431187,2.6240355912232452E-5,0.002357361330279967
87,951.9636233189527,2.6172097862197203E-5,0.0023835334281421643
88,951.0450024394323,2.6095857580188537E-5,0.002409629285722353
89,950.1170651384915,2.6208723377183773E-5,0.0024358380090995367
90,949.1822319328193,2.62663249710517E-5,0.0024621043340705886
91,948.254056087723,2.6479265655326362E-5,0.002488583599725915
92,947.3137798061804,2.6549429781563212E-5,0.002515133029507478
93,946.371741573732,2.627602086052073E-5,0.002541409050367999
94,945.4261012741628,2.6052185057036058E-5,0.002567461235425035
95,944.4745915527743,2.622402325880803E-5,0.002593685258683843
96,943.5354495806429,2.632075998310801E-5,0.002620006018666951
97,942.6187264424111,2.642378552281861E-5,0.0026464298041897695
98,941.701734043211,2.6470483538738084E-5,0.0026729002877285074
99,940.7866887905409,2.683710816965214E-5,0.0026997373958981595
100,939.8692492503326,2.710216210576001E-5,0.0027268395580039195
101,938.9437910397608,2.7571064108513492E-5,0.002754410622112433
102,938.0143329330859,2.781721892506538E-5,0.0027822278410374983
103,937.0922038294339,2.7620321923984133E-5,0.0028098481629614826
104,936.1496583703031,2.7441656652595275E-5,0.0028372898196140778
105,935.214867972746,2.7680787247932004E-5,0.00286497060686201
106,934.2804333972745,2.7729756065894176E-5,0.002892700362927904
107,933.3368723142803,2.7624119414876904E-5,0.002920324482342781
108,932.4028169266861,2.7680604817984862E-5,0.0029480050871607657
109,931.4651035440733,2.765451963035293E-5,0.0029756596067911185
110,930.5210279619846,2.7502786703041827E-5,0.00300316239349416
111,929.5771060617822,2.7502322131333156E-5,0.0030306647156254935
112,928.6301506999192,2.7583825360876852E-5,0.0030582485409863702
113,927.6845530206914,2.7597748335497953E-5,0.0030858462893218683
114,926.7387858325932,2.7378018635491233E-5,0.0031132243079573596
115,925.7952336963377,2.7300951415383047E-5,0.003140525259372743
116,924.8535838652391,2.7216311410771944E-5,0.0031677415707835146
117,923.8992695883694,2.7571850712907102E-5,0.0031953134214964215
118,922.9256465405248,2.7441435101110398E-5,0.003222754856597532
119,921.9388749461308,2.7543950145772906E-5,0.003250298806743305
120,920.9592341639711,2.735075283590608E-5,0.003277649559579211
121,919.9886312349795,2.7191943679764595E-5,0.003304841503258976
122,919.018803559056,2.7482526401013364E-5,0.003332324029659989
123,918.0375085960726,2.7443149091782246E-5,0.0033597671787517712
124,917.0462326153635,2.7511736679254855E-5,0.003387278915431026
125,916.0476628993226,2.7559323995632106E-5,0.003414838239426658
126,915.0514304918446,2.7759027388410295E-5,0.0034425972668150682
127,914.0575365605519,2.7478609604399193E-5,0.0034700758764194674
128,913.0756856407619,2.7610910413720234E-5,0.0034976867868331874
129,912.0999509242339,2.8082206695871874E-5,0.0035257689935290592
130,911.1257850607892,2.830134112835462E-5,0.003554070334657414
131,910.138475370101,2.832578657297603E-5,0.00358239612123039
132,909.1706615739369,2.7652130863792315E-5,0.0036100482520941826
133,908.202376313369,2.7698573853917752E-5,0.0036377468259481
134,907.2476425020252,2.7776736994369957E-5,0.00366552356294247
135,906.2875914657141,2.7769897666721112E-5,0.0036932934606091912
136,905.3211103506786,2.789274728529733E-5,0.0037211862078944885
137,904.344876395473,2.820963484299677E-5,0.0037493958427374852
138,903.3686820388308,2.8337407971386684E-5,0.0037777332507088718
139,902.4052980137837,2.815196653642584E-5,0.0038058852172452974
140,901.4357014079499,2.8062067966567287E-5,0.003833947285211865
141,900.487943024722,2.782553055751242E-5,0.0038617728157693773
142,899.5440470437609,2.7873063362772344E-5,0.0038896458791321496
143,898.6074640701519,2.8109117115611888E-5,0.003917754996247761
144,897.6682352299033,2.794549950185541E-5,0.003945700495749617
145,896.7227316703935,2.7841556246708284E-5,0.003973542051996325
146,895.7641728810094,2.7788476312078926E-5,0.004001330528308404
147,894.7919758024262,2.7439721208685982E-5,0.00402877024951709
148,893.8076151579634,2.7504431395365427E-5,0.004056274680912456
149,892.8226398378249,2.7640477007198643E-5,0.004083915157919654
150,891.8506402823837,2.7781067888143492E-5,0.0041116962258077976
151,890.8864569412345,2.7731235196058175E-5,0.004139427461003856
152,889.9226419588103,2.7784199936930663E-5,0.004167211660940787
153,888.9530680165542,2.7796111137594197E-5,0.004195007772078381
154,887.9725822831094,2.762754600612047E-5,0.004222635318084501
155,887.0133410258445,2.7964603318202778E-5,0.004250599921402704
156,886.0402941502057,2.8141628701992316E-5,0.004278741550104696
157,885.0369972028845,2.8217793171881488E-5,0.004306959343276577
158,884.0331026356464,2.8182863802541864E-5,0.004335142207079119
159,883.050681456378,2.8169797149951934E-5,0.0043633120042290705
160,882.0915560050413,2.8028220450306108E-5,0.004391340224679376
161,881.1311208392173,2.7561328984168435E-5,0.004418901553663545
162,880.1523259784702,2.7572964633140153E-5,0.004446474518296685
163,879.1770331132537,2.7559263974996503E-5,0.004474033782271681
164,878.2068912534038,2.7421561152057998E-5,0.004501455343423739
165,877.2178228058225,2.738151022388371E-5,0.004528836853647623
166,876.231839419154,2.7538941785843948E-5,0.004556375795433467
167,875.2401365101268,2.729773645562546E-5,0.004583673531889093
168,874.2359176069884,2.7466135742247237E-5,0.00461113966763134
169,873.2472940866115,2.7390404838995057E-5,0.004638530072470335
170,872.2662259135078,2.7235899498985112E-5,0.004665765971969321
171,871.2696899708941,2.726779588080688E-5,0.004693033767850127
172,870.2722236401027,2.733022514925368E-5,0.004720363992999381
173,869.3009597000201,2.7575472759662146E-5,0.004747939465759043
174,868.3397523655335,2.7440497789592842E-5,0.004775379963548636
175,867.3610399624283,2.741412315376562E-5,0.004802794086702401
176,866.3909583968389,2.745086202825581E-5,0.0048302449487306574
177,865.4016720292709,2.752295193730622E-5,0.004857767900667964
178,864.4215148315541,2.7602650361890347E-5,0.004885370551029854
179,863.4242120516421,2.738030545406423E-5,0.004912750856483918
180,862.4244770129394,2.732630209976365E-5,0.004940077158583682
181,861.437357950097,2.726807134804636E-5,0.004967345229931728
182,860.451343060126,2.7267472899045605E-5,0.0049946127028307735
183,859.4472992560826,2.7311310005196714E-5,0.00502192401283597
184,858.4440503562727,2.7378672250270077E-5,0.00504930268508624
185,857.4458572002713,2.7543740867376346E-5,0.0050768464259536164
186,856.4455963338856,2.7528634654827547E-5,0.005104375060608444
187,855.447756926278,2.7202798878106054E-5,0.00513157785948655
188,854.4480890834774,2.726594061719895E-5,0.005158843800103749
189,853.4642794967815,2.7480018483264847E-5,0.005186323818587014
190,852.4709149726559,2.7519830356609076E-5,0.005213843648943623
191,851.4537326760585,2.756345616879734E-5,0.0052414071051124205
192,850.4176426007998,2.755254970469846E-5,0.005268959654817119
193,849.3813943518936,2.7826561905807278E-5,0.0052967862167229264
194,848.3751167519115,2.7809119506478905E-5,0.005324595336229405
195,847.3774027419923,2.7630873181814517E-5,0.00535222620941122
196,846.3741493452859,2.776138630440551E-5,0.005379987595715625
197,845.3619960373156,2.7582725619850787E-5,0.005407570321335476
198,844.3569322867863,2.754288215874052E-5,0.005435113203494216
199,843.359871036618,2.737209955710591E-5,0.005462485303051322
200,842.3582514869178,2.7475101581788097E-5,0.00548996040463311
201,841.3467790496974,2.7534713367822703E-5,0.005517495118000933
202,840.3234945364003,2.7258390036665053E-5,0.005544753508037598
203,839.2872614236408,2.7304361534060557E-5,0.005572057869571658
204,838.2616698478337,2.7459044129352237E-5,0.00559951691370101
205,837.2356534565014,2.719537623209868E-5,0.005626712289933109
206,836.1875742774833,2.7303887868304857E-5,0.005654016177801414
207,835.1386566243797,2.7513032372242533E-5,0.0056815292101736565
208,834.087127718743,2.7373812943613116E-5,0.00570890302311727
209,832.9941148874215,2.7411527425452548E-5,0.005736314550542723
210,831.8683539268436,2.7298972482414416E-5,0.005763613523025137
211,830.7293676883485,2.72362892877997E-5,0.005790849812312936
212,829.605748376306,2.7446228513946204E-5,0.005818296040826882
213,828.4522321350288,2.734530848535278E-5,0.005845641349312235
214,827.3023491886335,2.72790243226398E-5,0.005872920373634875
215,826.1708545434307,2.711186527605343E-5,0.005900032238910929
216,825.0142610312125,2.7194143392281634E-5,0.005927226382303211
217,823.8624530553843,2.7062575603008226E-5,0.005954288957906219
218,822.6987620732418,2.6981847071134845E-5,0.005981270804977354
219,821.5375013807495,2.6695727176933666E-5,0.006007966532154288
220,820.3703487996734,2.6924798599376886E-5,0.006034891330753665
221,819.2043883490827,2.7161643662978897E-5,0.006062052974416644
222,818.0408140559875,2.685253365785269E-5,0.006088905508074497
223,816.9056812939489,2.6843716933824404E-5,0.006115749225008321
224,815.7827317235477,2.6634721244553985E-5,0.006142383946252875
225,814.6814789035267,2.6741003477249373E-5,0.006169124949730124
226,813.5767408750618,2.664287932106897E-5,0.006195767829051193
227,812.4717164138771,2.661759973757828E-5,0.006222385428788771
228,811.3307464593391,2.6783205056347977E-5,0.006249168633845119
229,810.1853929656734,2.6919160595686927E-5,0.006276087794440806
230,809.0190586032462,2.68564935230501E-5,0.006302944287963856
231,807.8401492948159,2.668127027142135E-5,0.006329625558235278
232,806.6424499268793,2.6686495469812288E-5,0.00635631205370509
233,805.4448960340704,2.684261692936178E-5,0.006383154670634452
234,804.2388791060656,2.6866574079672187E-5,0.006410021244714124
235,803.0542493044848,2.6984579565252596E-5,0.0064370058242793765
236,801.868507461714,2.695213385216574E-5,0.006463957958131542
237,800.6951512413166,2.68874359225579E-5,0.0064908453940541
238,799.5331449098363,2.6966943893351628E-5,0.006517812337947452
239,798.3285730392892,2.6939958782756243E-5,0.006544752296730208
240,797.1039685324179,2.7003920438585412E-5,0.006571756217168793
241,795.8844700671837,2.6939173831147997E-5,0.0065986953909999415
242,794.672791122922,2.6560943200558577E-5,0.0066252563342005
243,793.4478727421255,2.6896954476666484E-5,0.006652153288677166
244,792.2044789026105,2.6902997187949142E-5,0.0066790562858651155
245,790.9734593993866,2.7062360098386608E-5,0.006706118645963502
246,789.7775525948332,2.727008961727731E-5,0.006733388735580779
247,788.5786245907783,2.7484977585194923E-5,0.006760873713165974
248,787.3733219299494,2.7849416627267456E-5,0.006788723129793241
249,786.1338631866855,2.7568824717191204E-5,0.006816291954510433
250,784.9092128105648,2.7533907797969133E-5,0.006843825862308402
251,783.7078517613905,2.7593647752435133E-5,0.0068714195100608375
252,782.4784294768128,2.730026723924404E-5,0.006898719777300081
253,781.252179895194,2.7470263079932784E-5,0.006926190040380014
254,779.9974340710958,2.7259236229868963E-5,0.006953449276609883
255,778.751581982396,2.7079775231130734E-5,0.006980529051841013
256,777.4997206449701,2.6941844567025763E-5,0.007007470896408039
257,776.2514035657163,2.689288981922772E-5,0.0070343637862272665
258,774.9877243750808,2.7268300895962586E-5,0.007061632087123229
259,773.70543700938,2.714579125352317E-5,0.007088777878376752
260,772.422288938279,2.695334689755303E-5,0.0071157312252743046
261,771.1264766299055,2.731714434116121E-5,0.007143048369615466
262,769.8160895312124,2.7301377747007802E-5,0.0071703497473624735
263,768.5216263995443,2.7197780733766327E-5,0.00719754752809624
264,767.2409587718194,2.7268686675160076E-5,0.0072248162147714
265,765.9473154309501,2.740774178851383E-5,0.007252223956559913
266,764.6670191250846,2.7568631292792E-5,0.007279792587852705
267,763.3992984850152,2.7370144771509556E-5,0.007307162732624215
268,762.1109493273873,2.7214375193835663E-5,0.00733437710781805
269,760.8403049859246,2.7237400666156835E-5,0.007361614508484207
270,759.5769514777614,2.715516782088788E-5,0.007388769676305094
271,758.301400594324,2.710166124581233E-5,0.007415871337550907
272,757.0350811791277,2.718003832398511E-5,0.007443051375874892
273,755.7831351241971,2.741253821160909E-5,0.007470463914086501
274,754.5228011982305,2.7544467973366875E-5,0.007498008382059868
275,753.265419812501,2.7446301658509395E-5,0.007525454683718377
276,752.0137084494086,2.7537607601240674E-5,0.007552992291319617
277,750.7865119271322,2.7513467014104813E-5,0.007580505758333723
278,749.5478258711439,2.746267884584355E-5,0.0076079684371795665
279,748.2725924892345,2.724157176410462E-5,0.007635210008943671
280,747.0011480179326,2.7164056500195675E-5,0.007662374065443867
281,745.7367678536285,2.7268770421855388E-5,0.007689642835865722
282,744.4805876310526,2.718559134075885E-5,0.007716828427206481
283,743.240316406763,2.7103212091178165E-5,0.00774393163929766
284,742.0226695207327,2.7456607137760866E-5,0.00777138824643542
285,740.8434524549906,2.7719668742726055E-5,0.007799107915178146
286,739.6804265054217,2.7970224309420096E-5,0.007827078139487567
287,738.5221109421727,2.8117803022838484E-5,0.007855195942510405
288,737.359721803704,2.7970033779620785E-5,0.007883165976290026
289,736.2242015596075,2.7941530001728102E-5,0.007911107506291754
290,735.0932618300835,2.802771467679061E-5,0.007939135220968544
291,733.9777780975385,2.817394895888679E-5,0.00796730916992743
292,732.8945129001617,2.7943302670494963E-5,0.007995252472597926
293,731.7950895516511,2.8203356263105457E-5,0.00802345582886103
294,730.6709346916954,2.8391314084543865E-5,0.008051847142945575
295,729.5767112115574,2.8440657443070676E-5,0.008080287800388644
296,728.4908844450711,2.8412181102585777E-5,0.00810869998149123
297,727.4061729902139,2.8700518618095967E-5,0.008137400500109327
298,726.2874537862986,2.881823514373485E-5,0.008166218735253061
299,725.2045934465316,2.843343550682792E-5,0.008194652170759889
300,724.1269519940126,2.845166238749037E-5,0.00822310383314738
301,723.1175961453183,2.850758189467762E-5,0.008251611415042057
302,722.1123733142618,2.8149077014300483E-5,0.008279760492056358
303,721.1565449296456,2.8103701582527475E-5,0.008307864193638886
304,720.1906734602323,2.7786654707032608E-5,0.008335650848345918
305,719.2282490359461,2.7887556802162238E-5,0.00836353840514808
306,718.2818744635072,2.7952987293545478E-5,0.008391491392441625
307,717.3385788749806,2.78412441584864E-5,0.008419332636600111
308,716.4322395342067,2.7792651887610747E-5,0.008447125288487721
309,715.506111034884,2.7715915429383157E-5,0.008474841203917104
310,714.5974786444356,2.7666648927922397E-5,0.008502507852845027
