#t,ESS,tempDiff,temp
0,999.9999999999848,0.0,0.0
1,999.9899999999985,4.033638496497171E-5,4.033638496497171E-5
2,999.9607435072985,3.971973665879404E-5,8.005612162376575E-5
3,999.9128614736882,3.989026045166707E-5,1.1994638207543282E-4
4,999.8470091119189,4.01121416385679E-5,1.6005852371400072E-4
5,999.7637960456645,4.0069472500660294E-5,2.00127996214661E-4
6,999.663714821837,3.998686824447773E-5,2.4011486445913875E-4
7,999.5484628936533,4.011406926228163E-5,2.802289337214204E-4
8,999.4166648789273,4.004489415535392E-5,3.202738278767743E-4
9,999.2696097427661,4.029504427384783E-5,3.6056887215062214E-4
10,999.1081649857895,4.0199145158368255E-5,4.007680173089904E-4
11,998.9313460542708,4.039092831726757E-5,4.41158945626258E-4
12,998.739666183402,4.054183857734076E-5,4.8170078420359876E-4
13,998.5360081752032,4.11144418002636E-5,5.228152260038624E-4
14,998.31985525012,4.089794004796365E-5,5.63713166051826E-4
15,998.0915279194876,4.0928683700875244E-5,6.046418497527013E-4
16,997.8512892554199,4.071593697934159E-5,6.453577867320428E-4
17,997.6013500755947,4.027237791420117E-5,6.85630164646244E-4
18,997.3388480019436,4.0515996246247364E-5,7.261461608924914E-4
19,997.0629525123574,4.069730062273698E-5,7.668434615152284E-4
20,996.7735981156834,4.0452507539284985E-5,8.072959690545134E-4
21,996.475446622713,4.0126634009199614E-5,8.47422603063713E-4
22,996.1643090139722,4.013774089282498E-5,8.87560343956538E-4
23,995.8420632337633,3.973389245607794E-5,9.272942364126159E-4
24,995.5107992635341,3.922107792059231E-5,9.665153143332082E-4
25,995.1705197082546,3.93239248647331E-5,0.0010058392391979413
26,994.823437465897,3.957626253084515E-5,0.0010454155017287864
27,994.4651405175282,3.9789232961443737E-5,0.00108520473469023
28,994.0985844812607,4.0319257279690273E-5,0.0011255239919699203
29,993.72300391203,4.057671164391917E-5,0.0011661007036138395
30,993.3482732702257,3.992658221969888E-5,0.0012060272858335384
31,992.9583179410462,3.998413842883324E-5,0.0012460114242623715
32,992.5604708745301,4.012825068469976E-5,0.0012861396749470713
33,992.1497285514328,3.9690526516536466E-5,0.0013258302014636078
34,991.731938127925,3.930987046411129E-5,0.0013651400719277191
35,991.3122855588136,3.9228060275246875E-5,0.001404368132202966
36,990.8896050775791,3.9466887154336285E-5,0.0014438350193573023
37,990.4634010655111,3.948695340688113E-5,0.0014833219727641833
38,990.024135598021,3.977122780244366E-5,0.001523093200566627
39,989.5778846045583,3.921442472356602E-5,0.001562307625290193
40,989.119814391782,3.902730844484422E-5,0.0016013349337350373
41,988.6551815485253,3.9516659726316646E-5,0.0016408515934613539
42,988.1900203916159,3.9832460455378505E-5,0.0016806840539167324
43,987.7184875358599,3.8789341593131125E-5,0.0017194733955098636
44,987.2370727342942,3.894136746530136E-5,0.0017584147629751648
45,986.7502639404511,3.8656960887014024E-5,0.0017970717238621789
46,986.2533731573917,3.817019340950789E-5,0.0018352419172716868
47,985.752539988432,3.825868433438076E-5,0.0018735006016060676
48,985.2472104105269,3.819635092059791E-5,0.0019116969525266655
49,984.7287787998688,3.843230774028004E-5,0.0019501292602669455
50,984.2084045218867,3.854789362207901E-5,0.0019886771538890247
51,983.679775862467,3.9036875725388734E-5,0.0020277140296144133
52,983.1556488838144,3.921488450326299E-5,0.002066928914117676
53,982.6247893689684,3.904556776600273E-5,0.002105974481883679
54,982.089004191511,3.9499832829977104E-5,0.002145474314713656
55,981.546606588493,3.944620953346096E-5,0.002184920524247117
56,981.0029772385012,3.8970999296703526E-5,0.0022238915235438207
57,980.4501537121399,3.9709866728898297E-5,0.002263601390272719
58,979.8991461059913,3.967358088957623E-5,0.0023032749711622952
59,979.3474597580067,3.9607814096251324E-5,0.0023428827852585467
60,978.7873441616347,3.930528440179195E-5,0.0023821880696603386
61,978.2237967966905,3.916467412995291E-5,0.0024213527437902914
62,977.6466147215755,3.924103061541687E-5,0.0024605937744057085
63,977.0620751187892,3.9143519345564974E-5,0.0024997372937512734
64,976.4688698742461,3.8847022770402496E-5,0.002538584316521676
65,975.8721674081014,3.832420351763599E-5,0.002576908520039312
66,975.2715843438083,3.853922650943678E-5,0.002615447746548749
67,974.6712318424205,3.862470116536611E-5,0.002654072447714115
68,974.071845391257,3.841662507549035E-5,0.0026924890727896052
69,973.4621853461849,3.835583171459927E-5,0.0027308449045042047
70,972.8313280675349,3.862735273283404E-5,0.0027694722572370388
71,972.1949676908398,3.846506226847914E-5,0.002807937319505518
72,971.5566879109798,3.850776894261957E-5,0.0028464450884481377
73,970.9173018656384,3.87375421873164E-5,0.002885182630635454
74,970.2694274207319,3.8822542286667294E-5,0.0029240051729221214
75,969.619143955824,3.950145722000407E-5,0.0029635066301421254
76,968.9649096532165,3.955004470218374E-5,0.003003056674844309
77,968.2992424330831,3.9162673562710716E-5,0.0030422193484070195
78,967.6235652379653,3.973354115812965E-5,0.003081952889565149
79,966.9447664407838,3.9958549799164826E-5,0.003121911439364314
80,966.2722224390725,3.9849653647071545E-5,0.0031617610930113854
81,965.6015669994442,3.9913771040432404E-5,0.0032016748640518178
82,964.9250567015782,3.9297776733372296E-5,0.00324097264078519
83,964.2507172432338,3.925279841796186E-5,0.003280225439203152
84,963.5790653712596,3.905713466555018E-5,0.0033192825738687023
85,962.9143446699644,3.9559150080187676E-5,0.00335884172394889
86,962.2498746285145,3.966667921232922E-5,0.003398508403161219
87,961.5827409133848,3.933801206907585E-5,0.0034378464152302946
88,960.916285347581,3.920775370914652E-5,0.0034770541689394413
89,960.2425772994122,3.85976953132055E-5,0.0035156518642526467
90,959.5705536727313,3.8640548521070425E-5,0.0035542924127737172
91,958.9014252278953,3.90789967326343E-5,0.0035933714095063517
92,958.2252702797269,3.929512852336654E-5,0.003632666538029718
93,957.5546395895544,3.959309322087533E-5,0.0036722596312505932
94,956.8982598228183,3.969203150133578E-5,0.003711951662751929
95,956.2546462824107,3.9249431885952E-5,0.003751201094637881
96,955.6211045970495,3.9386720207676305E-5,0.003790587814845557
97,954.9720762597168,3.907236721546069E-5,0.0038296601820610177
98,954.3202814355047,4.009359407235636E-5,0.0038697537761333742
99,953.6719617257974,4.017554767966942E-5,0.003909929323813044
100,953.015877031948,4.033057774476963E-5,0.003950259901557813
101,952.3530358202881,4.0380026263511524E-5,0.003990639927821325
102,951.695316351478,4.014512200296454E-5,0.004030785049824289
103,951.0309016140276,3.943154209624146E-5,0.004070216591920531
104,950.3687152513842,3.9680750904992055E-5,0.004109897342825523
105,949.6903142414939,3.9605746984564696E-5,0.004149503089810087
106,949.0196059538041,3.924478741625291E-5,0.00418874787722634
107,948.3432848673629,3.96317140848571E-5,0.004228379591311197
108,947.6646502334052,3.956812370921404E-5,0.004267947715020411
109,946.9786809450037,3.9786909022863637E-5,0.004307734624043275
110,946.2914328882714,3.878056982349745E-5,0.004346515193866773
111,945.592232084754,3.8961428048990704E-5,0.004385476621915764
112,944.8911860116016,3.885733315533819E-5,0.004424333955071102
113,944.1996142869366,3.807863258359387E-5,0.0044624125876546955
114,943.4963999521863,3.80623990719934E-5,0.004500474986726689
115,942.7877175531557,3.8002180345138874E-5,0.004538477167071828
116,942.0704261985653,3.796204894768349E-5,0.004576439216019511
117,941.3482175064659,3.769018305829503E-5,0.004614129399077806
118,940.6302424974108,3.7960060383587456E-5,0.004652089459461393
119,939.9016444165965,3.780219942355319E-5,0.0046898916588849465
120,939.1763401997614,3.805508078356845E-5,0.004727946739668515
121,938.466982561142,3.848308124844325E-5,0.0047664298209169585
122,937.7344029828745,3.8741397763135784E-5,0.0048051712186800944
123,936.9939714552593,3.870268405901217E-5,0.004843873902739107
124,936.2434266073034,3.837639355023626E-5,0.004882250296289343
125,935.4973150544225,3.856496986287869E-5,0.004920815266152222
126,934.7373398099419,3.847154748081397E-5,0.004959286813633036
127,933.9755079872119,3.833540872847121E-5,0.004997622222361507
128,933.2249882767595,3.8694266638020466E-5,0.005036316488999527
129,932.4718551873019,3.7866417416141934E-5,0.005074182906415669
130,931.7155781278872,3.8058949352398886E-5,0.005112241855768068
131,930.9495849420608,3.7990900445167275E-5,0.0051502327562132355
132,930.1848856899614,3.824026200724985E-5,0.005188473018220486
133,929.4139448174051,3.817025385500452E-5,0.00522664327207549
134,928.6615559259266,3.809009233045057E-5,0.005264733364405941
135,927.9077884994435,3.845862231921067E-5,0.005303191986725152
136,927.1697104419604,3.845370259245305E-5,0.005341645689317605
137,926.408980893123,3.83588692963371E-5,0.005380004558613941
138,925.6513333708847,3.821325266888032E-5,0.005418217811282822
139,924.8828210660188,3.803941934685331E-5,0.005456257230629675
140,924.1123233802346,3.807579546426902E-5,0.005494333026093944
141,923.3534761493657,3.806050484295583E-5,0.0055323935309369
142,922.5801075118084,3.8014184055110066E-5,0.00557040771499201
143,921.8254137004913,3.8455631861097756E-5,0.005608863346853108
144,921.0707563386065,3.8777907442249826E-5,0.005647641254295358
145,920.3330784604437,3.888908321801275E-5,0.005686530337513371
146,919.5862866470762,3.8539060579379286E-5,0.00572506939809275
147,918.8368655977321,3.8876966171158946E-5,0.005763946364263909
148,918.07875289441,3.907903511966495E-5,0.005803025399383574
149,917.3143123086948,3.94148079377073E-5,0.005842440207321281
150,916.5485574642541,3.9177554899656716E-5,0.005881617762220938
151,915.8086831706215,3.940652493622523E-5,0.005921024287157163
152,915.0660550661383,3.9399513776987066E-5,0.00596042380093415
153,914.3211312439446,3.9190398743908825E-5,0.005999614199678059
154,913.5909458303635,3.891208081943757E-5,0.0060385262804974965
155,912.8576673844894,3.854065902331706E-5,0.0060770669395208135
156,912.1231937935006,3.8667089993943695E-5,0.006115734029514757
157,911.407557868204,3.862425608514128E-5,0.006154358285599898
158,910.7197943202463,3.9050583396216915E-5,0.006193408868996116
159,910.0514138832947,3.939977841471062E-5,0.006232808647410827
160,909.3853060463133,3.959357008383301E-5,0.006272402217494659
161,908.7082524246308,3.9684359999654295E-5,0.006312086577494313
162,908.0246339093758,3.965301315710971E-5,0.006351739590651423
163,907.3205304328058,3.9136345764288463E-5,0.006390875936415711
164,906.6255793525196,3.939203639591166E-5,0.006430267972811623
165,905.9362291501919,3.962093989525615E-5,0.006469888912706879
166,905.237667797893,3.9635788315437155E-5,0.006509524701022316
167,904.5256469120774,3.9992399208857485E-5,0.0065495171002311735
168,903.8211812668346,4.0300211887346045E-5,0.00658981731211852
169,903.1254309923829,4.02003880474287E-5,0.006630017700165949
170,902.427070145563,4.0196591133023735E-5,0.006670214291298973
171,901.7205880725709,4.0518314795252176E-5,0.006710732606094225
172,901.0383961216168,4.060224547323115E-5,0.006751334851567456
173,900.3612657500285,4.0592343462411304E-5,0.006791927195029867
174,899.6743884500668,4.001711291500738E-5,0.006831944307944874
175,898.996538004156,3.988882809815986E-5,0.0068718331360430335
176,898.3045351632119,3.9347474338059514E-5,0.006911180610381093
177,897.5834285881276,3.929140693574742E-5,0.006950472017316841
178,896.8671605027483,3.975573151019896E-5,0.006990227748827039
179,896.1753925704995,4.001014843731998E-5,0.007030237897264359
180,895.4884917837237,4.046521518719395E-5,0.007070703112451553
181,894.8185806370537,4.027769412477729E-5,0.00711098080657633
182,894.1160219896483,4.0434385565013076E-5,0.007151415192141343
183,893.4354201871125,4.0497346290531286E-5,0.0071919125384318746
184,892.7453898379291,4.063543028206678E-5,0.007232547968713941
185,892.0348972551329,4.021643705706878E-5,0.00727276440577101
186,891.329484324727,4.016603814328341E-5,0.007312930443914293
187,890.6280605620611,4.031804593541569E-5,0.007353248489849708
188,889.9254901473563,3.99824775162961E-5,0.007393230967366005
189,889.2086702400447,3.99408544526061E-5,0.007433171821818611
190,888.4732027423515,4.0207385541022654E-5,0.007473379207359633
191,887.706112142602,4.0270087992625155E-5,0.007513649295352259
192,886.9280092652148,4.0000416657136564E-5,0.007553649712009396
193,886.1607564290917,3.962476068905732E-5,0.007593274472698453
194,885.3824193609621,3.9820222380712215E-5,0.007633094695079165
195,884.5961515991769,4.025090820680734E-5,0.007673345603285972
196,883.8052371469033,4.069893279542957E-5,0.007714044536081402
197,883.0038265108751,4.072285930065551E-5,0.007754767395382058
198,882.2301628053243,4.073942212527107E-5,0.007795506817507329
199,881.4220437935616,4.055499291538817E-5,0.007836061810422717
200,880.6247814690798,3.9848548846658465E-5,0.007875910359269375
201,879.8427900349245,4.042368252715125E-5,0.007916334041796525
202,879.0523617432935,3.9902918985999595E-5,0.007956236960782525
203,878.2463456982086,3.966886278379154E-5,0.007995905823566317
204,877.4202773239118,3.924011293667492E-5,0.008035145936502992
205,876.5735726800029,3.9640237688021866E-5,0.008074786174191015
206,875.7094049241882,3.955280559427784E-5,0.008114338979785292
207,874.84385222996,3.963714227806939E-5,0.008153976122063361
208,873.9933489748191,3.946023118865805E-5,0.00819343635325202
209,873.1306306532788,3.998912985914041E-5,0.00823342548311116
210,872.2741588729323,4.014193421649816E-5,0.008273567417327658
211,871.4570994270205,4.042438486164835E-5,0.008313991802189306
212,870.6386719861988,4.0300553868524257E-5,0.00835429235605783
213,869.8191519894774,3.9948631142574514E-5,0.008394240987200404
214,868.9823385923224,4.014502957098751E-5,0.008434386016771392
215,868.1678372777285,3.9818795163966766E-5,0.008474204811935358
216,867.3499799274048,3.955388474780798E-5,0.008513758696683166
217,866.5287857171146,3.9688217430850746E-5,0.008553446914114016
218,865.7021903732012,4.012301716007444E-5,0.008593569931274091
219,864.8761054264991,4.0532634906896715E-5,0.008634102566180989
220,864.0398306129798,4.1039938097818174E-5,0.008675142504278806
221,863.1857052915684,4.0977386015799685E-5,0.008716119890294607
222,862.3071683267376,4.147922548804761E-5,0.008757599115782654
223,861.468540438703,4.21000480920234E-5,0.008799699163874677
224,860.6498608364557,4.205270399681955E-5,0.008841751867871497
225,859.798795670285,4.196827386371156E-5,0.008883720141735208
226,858.996835924896,4.188283950345844E-5,0.008925602981238666
227,858.220683486116,4.1845768763418446E-5,0.008967448750002084
228,857.4325930996459,4.130377695437516E-5,0.00900875252695646
229,856.6363952539497,4.111102825443672E-5,0.009049863555210896
230,855.8364680330004,4.1566016247134106E-5,0.00909142957145803
231,855.0574178549496,4.1296635585874125E-5,0.009132726207043904
232,854.3002196252619,4.136563731588576E-5,0.00917409184435979
233,853.5475608983905,4.104225441281077E-5,0.0092151340987726
234,852.8094370366535,4.100095486730566E-5,0.009256135053639905
235,852.0321931043206,4.075539557818627E-5,0.009296890449218092
236,851.2426090784683,4.081579339705967E-5,0.009337706242615151
237,850.4509272932872,4.0518938577690294E-5,0.009378225181192842
238,849.6661782710819,4.0845057887631835E-5,0.009419070239080474
239,848.8720335556899,4.1054892740161706E-5,0.009460125131820636
240,848.1060891659439,4.068302487197982E-5,0.009500808156692615
241,847.3511920025084,4.077999169035184E-5,0.009541588148382968
242,846.603165920938,4.064680536978392E-5,0.00958223495375275
243,845.8590538712947,4.070414859973701E-5,0.009622939102352488
244,845.1168048265707,4.059674028735957E-5,0.009663535842639848
245,844.381530370376,4.077891689654646E-5,0.009704314759536394
246,843.6443386131825,4.1105319266388114E-5,0.009745420078802781
247,842.9228392496079,4.0811347321991554E-5,0.009786231426124774
248,842.1997650675204,4.100044397808331E-5,0.009827231870102857
249,841.4640792940894,4.154844689973136E-5,0.009868780317002588
250,840.7469548727832,4.15865536893708E-5,0.009910366870691958
251,840.0355815188931,4.125589493844701E-5,0.009951622765630405
252,839.3058828470167,4.092043023835553E-5,0.00999254319586876
253,838.5757942756168,4.132643880285622E-5,0.010033869634671616
254,837.8086796817993,4.119564321122086E-5,0.010075065277882838
255,837.0483433780689,4.127112339723476E-5,0.010116336401280072
256,836.299366233267,4.0953647592484736E-5,0.010157290048872556
257,835.570183060952,4.0622830487240994E-5,0.010197912879359797
258,834.8605366198827,4.0999509247976834E-5,0.010238912388607774
259,834.1352098311105,4.040153189885006E-5,0.010279313920506624
260,833.4128789859224,4.08578907623003E-5,0.010320171811268925
261,832.6707339530737,4.1205923779406685E-5,0.010361377735048331
262,831.9303823056297,4.103423930533815E-5,0.01040241197435367
263,831.2125679546949,4.0662664805040084E-5,0.010443074639158709
264,830.5187654135981,4.106108804714195E-5,0.010484135727205851
265,829.8039068998021,4.0547749683139796E-5,0.010524683476888992
266,829.0978999992442,4.090955438506446E-5,0.010565593031274056
267,828.3497359994212,4.07428939632261E-5,0.010606335925237282
268,827.6203266735139,4.056976937866221E-5,0.010646905694615945
269,826.9082359293286,4.078998030004469E-5,0.01068769567491599
270,826.1865858296801,4.0936725916272286E-5,0.010728632400832262
271,825.4634955401731,4.150506215947217E-5,0.010770137462991734
272,824.7083048845735,4.144391501906141E-5,0.010811581378010795
273,823.9475834589277,4.1363305257761265E-5,0.010852944683268556
274,823.1910576486958,4.1678646741356165E-5,0.010894623330009913
275,822.4195839308015,4.164152295987666E-5,0.01093626485296979
276,821.6684126309539,4.131988171768948E-5,0.01097758473468748
277,820.9236578326058,4.1458715150576435E-5,0.011019043449838057
278,820.1788502271528,4.159335058516741E-5,0.011060636800423225
279,819.4327076386285,4.131420835596798E-5,0.011101951008779193
280,818.6548079367567,4.113509990339463E-5,0.011143086108682587
281,817.850648209325,4.0995528927769086E-5,0.011184081637610357
282,817.0325428016922,4.1115076172670183E-5,0.011225196713783027
283,816.1842079121128,4.1893441413683675E-5,0.01126709015519671
284,815.3592761074717,4.194329835381286E-5,0.011309033453550523
285,814.5499864089877,4.168257162720916E-5,0.011350716025177732
286,813.6895957769524,4.101202024805892E-5,0.01139172804542579
287,812.8296885820347,4.089020496364089E-5,0.011432618250389432
288,811.9293043396437,4.0830417821707314E-5,0.01147344866821114
289,811.0530734059898,4.107658890817204E-5,0.011514525257119311
290,810.1854165054324,4.079302509862237E-5,0.011555318282217933
291,809.3069523944291,4.098475787259078E-5,0.011596303040090523
292,808.4449877176062,4.081393930355357E-5,0.011637116979394077
293,807.5697486465275,4.092886609383683E-5,0.011678045845487914
294,806.7093216135097,4.014839121278829E-5,0.011718194236700702
295,805.8179934962443,4.047161057301755E-5,0.01175866584727372
296,804.9105174410881,4.029194252187348E-5,0.011798957789795592
297,804.0163092644427,3.997461077868637E-5,0.011838932400574279
298,803.1147736652085,3.982249277634613E-5,0.011878754893350624
299,802.210034398651,3.967605945554995E-5,0.011918430952806175
300,801.276600396185,3.953516990802583E-5,0.0119579661227142
301,800.363446449769,3.9587462510937344E-5,0.011997553585225139
302,799.4697189078883,3.948397334323894E-5,0.012037037558568378
303,798.5897124200433,3.975359344967815E-5,0.012076791152018056
304,797.673376078317,4.0119517177698026E-5,0.012116910669195754
305,796.864514586366,4.022319669460405E-5,0.012157133865890358
306,796.023007987314,4.0256585987264316E-5,0.012197390451877623
307,795.1451618942427,4.035158337831788E-5,0.01223774203525594
308,794.2934499036324,4.0134388005131536E-5,0.012277876423261072
309,793.4556734348971,4.0250691299729276E-5,0.012318127114560802
310,792.6108977323817,4.040918335911011E-5,0.012358536297919913
311,791.8026291157627,4.00245608506772E-5,0.01239856085877059
312,791.0453390968613,4.026500709162845E-5,0.01243882586586222
