#t,ESS,tempDiff,temp
0,999.9999999999848,0.0,0.0
1,999.9895756451551,4.033638496497171E-5,4.033638496497171E-5
2,999.9598693996453,3.971973665879404E-5,8.005612162376575E-5
3,999.9107723536567,3.989026045166707E-5,1.1994638207543282E-4
4,999.8432503597056,4.01121416385679E-5,1.6005852371400072E-4
5,999.7586324072169,4.0069472500660294E-5,2.00127996214661E-4
6,999.6593702511632,3.998686824447773E-5,2.4011486445913875E-4
7,999.5427965037336,4.011406926228163E-5,2.802289337214204E-4
8,999.4107346068905,4.004489415535392E-5,3.202738278767743E-4
9,999.2649508794377,4.029504427384783E-5,3.6056887215062214E-4
10,999.1060626927047,4.0199145158368255E-5,4.007680173089904E-4
11,998.931251137421,4.039092831726757E-5,4.41158945626258E-4
12,998.7432663208118,4.054183857734076E-5,4.8170078420359876E-4
13,998.537604933119,4.11144418002636E-5,5.228152260038624E-4
14,998.31873487326,4.089794004796365E-5,5.63713166051826E-4
15,998.0902571980681,4.0928683700875244E-5,6.046418497527013E-4
16,997.8509858109337,4.071593697934159E-5,6.453577867320428E-4
17,997.6011460963948,4.027237791420117E-5,6.85630164646244E-4
18,997.339051650585,4.0515996246247364E-5,7.261461608924914E-4
19,997.062807000255,4.069730062273698E-5,7.668434615152284E-4
20,996.7772968819124,4.0452507539284985E-5,8.072959690545134E-4
21,996.4822141925595,4.0126634009199614E-5,8.47422603063713E-4
22,996.1777521986997,4.013774089282498E-5,8.87560343956538E-4
23,995.8599702573119,3.973389245607794E-5,9.272942364126159E-4
24,995.5389237237919,3.922107792059231E-5,9.665153143332082E-4
25,995.2096587058782,3.93239248647331E-5,0.0010058392391979413
26,994.8668102824053,3.957626253084515E-5,0.0010454155017287864
27,994.5151978073287,3.9789232961443737E-5,0.00108520473469023
28,994.1547503807192,4.0319257279690273E-5,0.0011255239919699203
29,993.7887012058561,4.057671164391917E-5,0.0011661007036138395
30,993.4224561461757,3.992658221969888E-5,0.0012060272858335384
31,993.0433329179007,3.998413842883324E-5,0.0012460114242623715
32,992.6616354691319,4.012825068469976E-5,0.0012861396749470713
33,992.2708857230443,3.9690526516536466E-5,0.0013258302014636078
34,991.8758784941236,3.930987046411129E-5,0.0013651400719277191
35,991.4761062694442,3.9228060275246875E-5,0.001404368132202966
36,991.0635380179261,3.9466887154336285E-5,0.0014438350193573023
37,990.6338294915342,3.948695340688113E-5,0.0014833219727641833
38,990.1858673712607,3.977122780244366E-5,0.001523093200566627
39,989.727265316516,3.921442472356602E-5,0.001562307625290193
40,989.2596233805978,3.902730844484422E-5,0.0016013349337350373
41,988.7847343909908,3.9516659726316646E-5,0.0016408515934613539
42,988.3052527108358,3.9832460455378505E-5,0.0016806840539167324
43,987.837077495403,3.8789341593131125E-5,0.0017194733955098636
44,987.3536555869508,3.894136746530136E-5,0.0017584147629751648
45,986.8640555933237,3.8656960887014024E-5,0.0017970717238621789
46,986.3729037551566,3.817019340950789E-5,0.0018352419172716868
47,985.878843007109,3.825868433438076E-5,0.0018735006016060676
48,985.3799691546541,3.819635092059791E-5,0.0019116969525266655
49,984.878942844646,3.843230774028004E-5,0.0019501292602669455
50,984.3702863603687,3.854789362207901E-5,0.0019886771538890247
51,983.8454129472185,3.9036875725388734E-5,0.0020277140296144133
52,983.3180197774749,3.921488450326299E-5,0.002066928914117676
53,982.7894166657123,3.904556776600273E-5,0.002105974481883679
54,982.2516471361159,3.9499832829977104E-5,0.002145474314713656
55,981.7131212919206,3.944620953346096E-5,0.002184920524247117
56,981.1718593340973,3.8970999296703526E-5,0.0022238915235438207
57,980.6121227209327,3.9709866728898297E-5,0.002263601390272719
58,980.0477029516231,3.967358088957623E-5,0.0023032749711622952
59,979.4865684204447,3.9607814096251324E-5,0.0023428827852585467
60,978.9295856485643,3.930528440179195E-5,0.0023821880696603386
61,978.3804434098336,3.916467412995291E-5,0.0024213527437902914
62,977.8197749361348,3.924103061541687E-5,0.0024605937744057085
63,977.260086740662,3.9143519345564974E-5,0.0024997372937512734
64,976.713230202391,3.8847022770402496E-5,0.002538584316521676
65,976.1605917526301,3.832420351763599E-5,0.002576908520039312
66,975.6002364457316,3.853922650943678E-5,0.002615447746548749
67,975.0367267090057,3.862470116536611E-5,0.002654072447714115
68,974.4769334722695,3.841662507549035E-5,0.0026924890727896052
69,973.9116531305444,3.835583171459927E-5,0.0027308449045042047
70,973.3524101764988,3.862735273283404E-5,0.0027694722572370388
71,972.7909763979492,3.846506226847914E-5,0.002807937319505518
72,972.212168534073,3.850776894261957E-5,0.0028464450884481377
73,971.6288313228338,3.87375421873164E-5,0.002885182630635454
74,971.0388916695965,3.8822542286667294E-5,0.0029240051729221214
75,970.4392603991893,3.950145722000407E-5,0.0029635066301421254
76,969.8300053829488,3.955004470218374E-5,0.003003056674844309
77,969.2193990837293,3.9162673562710716E-5,0.0030422193484070195
78,968.589388191938,3.973354115812965E-5,0.003081952889565149
79,967.9535525195147,3.9958549799164826E-5,0.003121911439364314
80,967.3039202019536,3.9849653647071545E-5,0.0031617610930113854
81,966.6324097213752,3.9913771040432404E-5,0.0032016748640518178
82,965.9789346579644,3.9297776733372296E-5,0.00324097264078519
83,965.3294479090755,3.925279841796186E-5,0.003280225439203152
84,964.678328245107,3.905713466555018E-5,0.0033192825738687023
85,964.018400497936,3.9559150080187676E-5,0.00335884172394889
86,963.3585117824642,3.966667921232922E-5,0.003398508403161219
87,962.6987263201845,3.933801206907585E-5,0.0034378464152302946
88,962.0255807003982,3.920775370914652E-5,0.0034770541689394413
89,961.3652209284995,3.85976953132055E-5,0.0035156518642526467
90,960.7086794935594,3.8640548521070425E-5,0.0035542924127737172
91,960.0326997136831,3.90789967326343E-5,0.0035933714095063517
92,959.3518720239086,3.929512852336654E-5,0.003632666538029718
93,958.6715480752206,3.959309322087533E-5,0.0036722596312505932
94,958.005909713988,3.969203150133578E-5,0.003711951662751929
95,957.3481988056642,3.9249431885952E-5,0.003751201094637881
96,956.6594924726512,3.9386720207676305E-5,0.003790587814845557
97,955.9763713948892,3.907236721546069E-5,0.0038296601820610177
98,955.2970389249157,4.009359407235636E-5,0.0038697537761333742
99,954.5944933336335,4.017554767966942E-5,0.003909929323813044
100,953.8962930373643,4.033057774476963E-5,0.003950259901557813
101,953.2064297306724,4.0380026263511524E-5,0.003990639927821325
102,952.510726060238,4.014512200296454E-5,0.004030785049824289
103,951.8381662181624,3.943154209624146E-5,0.004070216591920531
104,951.1716360821412,3.9680750904992055E-5,0.004109897342825523
105,950.4699743200309,3.9605746984564696E-5,0.004149503089810087
106,949.7595044020685,3.924478741625291E-5,0.00418874787722634
107,949.0410388486022,3.96317140848571E-5,0.004228379591311197
108,948.3093903170566,3.956812370921404E-5,0.004267947715020411
109,947.5616580173985,3.9786909022863637E-5,0.004307734624043275
110,946.816188116983,3.878056982349745E-5,0.004346515193866773
111,946.0639102998854,3.8961428048990704E-5,0.004385476621915764
112,945.3126370172993,3.885733315533819E-5,0.004424333955071102
113,944.5592509701263,3.807863258359387E-5,0.0044624125876546955
114,943.8135343549491,3.80623990719934E-5,0.004500474986726689
115,943.0568643723857,3.8002180345138874E-5,0.004538477167071828
116,942.3020322946392,3.796204894768349E-5,0.004576439216019511
117,941.5573525006695,3.769018305829503E-5,0.004614129399077806
118,940.8353161825457,3.7960060383587456E-5,0.004652089459461393
119,940.1244783412735,3.780219942355319E-5,0.0046898916588849465
120,939.4136790807154,3.805508078356845E-5,0.004727946739668515
121,938.6854599195262,3.848308124844325E-5,0.0047664298209169585
122,937.9527173499592,3.8741397763135784E-5,0.0048051712186800944
123,937.2407323287149,3.870268405901217E-5,0.004843873902739107
124,936.5309367480057,3.837639355023626E-5,0.004882250296289343
125,935.7903788497076,3.856496986287869E-5,0.004920815266152222
126,935.0628443118447,3.847154748081397E-5,0.004959286813633036
127,934.3560214150202,3.833540872847121E-5,0.004997622222361507
128,933.6535905766292,3.8694266638020466E-5,0.005036316488999527
129,932.9551723673668,3.7866417416141934E-5,0.005074182906415669
130,932.2629978337051,3.8058949352398886E-5,0.005112241855768068
131,931.5843849341179,3.7990900445167275E-5,0.0051502327562132355
132,930.887798646152,3.824026200724985E-5,0.005188473018220486
133,930.1867894117386,3.817025385500452E-5,0.00522664327207549
134,929.4871094867711,3.809009233045057E-5,0.005264733364405941
135,928.7948440453877,3.845862231921067E-5,0.005303191986725152
136,928.1102101416482,3.845370259245305E-5,0.005341645689317605
137,927.4197782919025,3.83588692963371E-5,0.005380004558613941
138,926.743251291682,3.821325266888032E-5,0.005418217811282822
139,926.0623066678276,3.803941934685331E-5,0.005456257230629675
140,925.3666164894265,3.807579546426902E-5,0.005494333026093944
141,924.6819715032144,3.806050484295583E-5,0.0055323935309369
142,923.9817671984182,3.8014184055110066E-5,0.00557040771499201
143,923.2917596100237,3.8455631861097756E-5,0.005608863346853108
144,922.5876998935321,3.8777907442249826E-5,0.005647641254295358
145,921.8895679391587,3.888908321801275E-5,0.005686530337513371
146,921.1946670553843,3.8539060579379286E-5,0.00572506939809275
147,920.4822452761236,3.8876966171158946E-5,0.005763946364263909
148,919.7574830475542,3.907903511966495E-5,0.005803025399383574
149,919.0202252784959,3.94148079377073E-5,0.005842440207321281
150,918.3003178843551,3.9177554899656716E-5,0.005881617762220938
151,917.5779955950121,3.940652493622523E-5,0.005921024287157163
152,916.8828554342198,3.9399513776987066E-5,0.00596042380093415
153,916.2057613117325,3.9190398743908825E-5,0.005999614199678059
154,915.537856299519,3.891208081943757E-5,0.0060385262804974965
155,914.8500100910984,3.854065902331706E-5,0.0060770669395208135
156,914.1696292646106,3.8667089993943695E-5,0.006115734029514757
157,913.4876765673422,3.862425608514128E-5,0.006154358285599898
158,912.8018257286108,3.9050583396216915E-5,0.006193408868996116
159,912.1255609662593,3.939977841471062E-5,0.006232808647410827
160,911.467357488863,3.959357008383301E-5,0.006272402217494659
161,910.848577435531,3.9684359999654295E-5,0.006312086577494313
162,910.230981028216,3.965301315710971E-5,0.006351739590651423
163,909.61082143078,3.9136345764288463E-5,0.006390875936415711
164,909.0009242985892,3.939203639591166E-5,0.006430267972811623
165,908.4052153199598,3.962093989525615E-5,0.006469888912706879
166,907.8180245568641,3.9635788315437155E-5,0.006509524701022316
167,907.2291189528398,3.9992399208857485E-5,0.0065495171002311735
168,906.632724081899,4.0300211887346045E-5,0.00658981731211852
169,906.0234574790455,4.02003880474287E-5,0.006630017700165949
170,905.416840344248,4.0196591133023735E-5,0.006670214291298973
171,904.8052633206062,4.0518314795252176E-5,0.006710732606094225
172,904.2127399599468,4.060224547323115E-5,0.006751334851567456
173,903.6283941072454,4.0592343462411304E-5,0.006791927195029867
174,903.0426441022355,4.001711291500738E-5,0.006831944307944874
175,902.4526935447099,3.988882809815986E-5,0.0068718331360430335
176,901.8746415542089,3.9347474338059514E-5,0.006911180610381093
177,901.25791786857,3.929140693574742E-5,0.006950472017316841
178,900.6426710647199,3.975573151019896E-5,0.006990227748827039
179,900.0127680665864,4.001014843731998E-5,0.007030237897264359
180,899.3644631409045,4.046521518719395E-5,0.007070703112451553
181,898.7204471015849,4.027769412477729E-5,0.00711098080657633
182,898.1029455511919,4.0434385565013076E-5,0.007151415192141343
183,897.4702102518846,4.0497346290531286E-5,0.0071919125384318746
184,896.8319454017045,4.063543028206678E-5,0.007232547968713941
185,896.1904264877475,4.021643705706878E-5,0.00727276440577101
186,895.5484144064284,4.016603814328341E-5,0.007312930443914293
187,894.8969092672502,4.031804593541569E-5,0.007353248489849708
188,894.2461475084302,3.99824775162961E-5,0.007393230967366005
189,893.6233059759186,3.99408544526061E-5,0.007433171821818611
190,893.0092365423903,4.0207385541022654E-5,0.007473379207359633
191,892.4164917096999,4.0270087992625155E-5,0.007513649295352259
192,891.8259850043305,4.0000416657136564E-5,0.007553649712009396
193,891.2309121617644,3.962476068905732E-5,0.007593274472698453
194,890.6225026359864,3.9820222380712215E-5,0.007633094695079165
195,890.0067081956129,4.025090820680734E-5,0.007673345603285972
196,889.3838070673584,4.069893279542957E-5,0.007714044536081402
197,888.7598976571475,4.072285930065551E-5,0.007754767395382058
198,888.1249826066493,4.073942212527107E-5,0.007795506817507329
199,887.4820741003414,4.055499291538817E-5,0.007836061810422717
200,886.8174562918962,3.9848548846658465E-5,0.007875910359269375
201,886.127727405894,4.042368252715125E-5,0.007916334041796525
202,885.4650400519056,3.9902918985999595E-5,0.007956236960782525
203,884.8196980578033,3.966886278379154E-5,0.007995905823566317
204,884.1869763393411,3.924011293667492E-5,0.008035145936502992
205,883.5476002645073,3.9640237688021866E-5,0.008074786174191015
206,882.8895175458669,3.955280559427784E-5,0.008114338979785292
207,882.2453385684618,3.963714227806939E-5,0.008153976122063361
208,881.5928460473185,3.946023118865805E-5,0.00819343635325202
209,880.9016280709188,3.998912985914041E-5,0.00823342548311116
210,880.216832870408,4.014193421649816E-5,0.008273567417327658
211,879.523006676881,4.042438486164835E-5,0.008313991802189306
212,878.7988042980223,4.0300553868524257E-5,0.00835429235605783
213,878.0748585889539,3.9948631142574514E-5,0.008394240987200404
214,877.3523857055831,4.014502957098751E-5,0.008434386016771392
215,876.6397010517869,3.9818795163966766E-5,0.008474204811935358
216,875.9315335079027,3.955388474780798E-5,0.008513758696683166
217,875.2374581981459,3.9688217430850746E-5,0.008553446914114016
218,874.5194183569004,4.012301716007444E-5,0.008593569931274091
219,873.800508017191,4.0532634906896715E-5,0.008634102566180989
220,873.0886071352799,4.1039938097818174E-5,0.008675142504278806
221,872.38341226488,4.0977386015799685E-5,0.008716119890294607
222,871.6500264832727,4.147922548804761E-5,0.008757599115782654
223,870.9371619740783,4.21000480920234E-5,0.008799699163874677
224,870.2349685759106,4.205270399681955E-5,0.008841751867871497
225,869.537011857824,4.196827386371156E-5,0.008883720141735208
226,868.8378233524163,4.188283950345844E-5,0.008925602981238666
227,868.1669276263387,4.1845768763418446E-5,0.008967448750002084
228,867.503861534406,4.130377695437516E-5,0.00900875252695646
229,866.837990971102,4.111102825443672E-5,0.009049863555210896
230,866.1703811959542,4.1566016247134106E-5,0.00909142957145803
231,865.5258455797564,4.1296635585874125E-5,0.009132726207043904
232,864.8723016945415,4.136563731588576E-5,0.00917409184435979
233,864.2411905018017,4.104225441281077E-5,0.0092151340987726
234,863.602940859663,4.100095486730566E-5,0.009256135053639905
235,862.9501246223499,4.075539557818627E-5,0.009296890449218092
236,862.2836608019635,4.081579339705967E-5,0.009337706242615151
237,861.6075756928254,4.0518938577690294E-5,0.009378225181192842
238,860.9275538652986,4.0845057887631835E-5,0.009419070239080474
239,860.2567853254795,4.1054892740161706E-5,0.009460125131820636
240,859.5983866796046,4.068302487197982E-5,0.009500808156692615
241,858.9311766331848,4.077999169035184E-5,0.009541588148382968
242,858.264467005737,4.064680536978392E-5,0.00958223495375275
243,857.5963437220645,4.070414859973701E-5,0.009622939102352488
244,856.9188804541752,4.059674028735957E-5,0.009663535842639848
245,856.2428726416604,4.077891689654646E-5,0.009704314759536394
246,855.558037080031,4.1105319266388114E-5,0.009745420078802781
247,854.8886823868766,4.0811347321991554E-5,0.009786231426124774
248,854.2175562500117,4.100044397808331E-5,0.009827231870102857
249,853.5144042591273,4.154844689973136E-5,0.009868780317002588
250,852.8164688636349,4.15865536893708E-5,0.009910366870691958
251,852.1165977918721,4.125589493844701E-5,0.009951622765630405
252,851.4258716826022,4.092043023835553E-5,0.00999254319586876
253,850.717686287721,4.132643880285622E-5,0.010033869634671616
254,850.0402396160483,4.119564321122086E-5,0.010075065277882838
255,849.3310029294337,4.127112339723476E-5,0.010116336401280072
256,848.6061419434334,4.0953647592484736E-5,0.010157290048872556
257,847.890749124303,4.0622830487240994E-5,0.010197912879359797
258,847.1711422756056,4.0999509247976834E-5,0.010238912388607774
259,846.4508624533222,4.040153189885006E-5,0.010279313920506624
260,845.711207996137,4.08578907623003E-5,0.010320171811268925
261,844.9594253710763,4.1205923779406685E-5,0.010361377735048331
262,844.181653785195,4.103423930533815E-5,0.01040241197435367
263,843.3925953365656,4.0662664805040084E-5,0.010443074639158709
264,842.5755226643118,4.106108804714195E-5,0.010484135727205851
265,841.7606140785183,4.0547749683139796E-5,0.010524683476888992
266,840.9242708111045,4.090955438506446E-5,0.010565593031274056
267,840.1278926047312,4.07428939632261E-5,0.010606335925237282
268,839.3125833190252,4.056976937866221E-5,0.010646905694615945
269,838.4641802532346,4.078998030004469E-5,0.01068769567491599
270,837.5974671029319,4.0936725916272286E-5,0.010728632400832262
271,836.670100207978,4.150506215947217E-5,0.010770137462991734
272,835.7569468120333,4.144391501906141E-5,0.010811581378010795
273,834.8205343248883,4.1363305257761265E-5,0.010852944683268556
274,833.8860629389652,4.1678646741356165E-5,0.010894623330009913
275,832.9411902958775,4.164152295987666E-5,0.01093626485296979
276,832.0053623585261,4.131988171768948E-5,0.01097758473468748
277,831.0530411801369,4.1458715150576435E-5,0.011019043449838057
278,830.0849855140594,4.159335058516741E-5,0.011060636800423225
279,829.1252165960044,4.131420835596798E-5,0.011101951008779193
280,828.1658553325532,4.113509990339463E-5,0.011143086108682587
281,827.2165168579783,4.0995528927769086E-5,0.011184081637610357
282,826.3089465134304,4.1115076172670183E-5,0.011225196713783027
283,825.3745274639404,4.1893441413683675E-5,0.01126709015519671
284,824.4728784438596,4.194329835381286E-5,0.011309033453550523
285,823.58666466508,4.168257162720916E-5,0.011350716025177732
286,822.7009454157717,4.101202024805892E-5,0.01139172804542579
287,821.7998237795317,4.089020496364089E-5,0.011432618250389432
288,820.9034961363451,4.0830417821707314E-5,0.01147344866821114
289,820.0029855386534,4.107658890817204E-5,0.011514525257119311
290,819.0962344992333,4.079302509862237E-5,0.011555318282217933
291,818.2280861194338,4.098475787259078E-5,0.011596303040090523
292,817.3753890303177,4.081393930355357E-5,0.011637116979394077
293,816.5285630787388,4.092886609383683E-5,0.011678045845487914
294,815.7261036439293,4.014839121278829E-5,0.011718194236700702
295,814.8947455546427,4.047161057301755E-5,0.01175866584727372
296,814.0787482282012,4.029194252187348E-5,0.011798957789795592
297,813.2681864244864,3.997461077868637E-5,0.011838932400574279
298,812.4734105999655,3.982249277634613E-5,0.011878754893350624
299,811.6980880590656,3.967605945554995E-5,0.011918430952806175
300,810.9252994796336,3.953516990802583E-5,0.0119579661227142
301,810.1796292460613,3.9587462510937344E-5,0.011997553585225139
302,809.421717030676,3.948397334323894E-5,0.012037037558568378
303,808.6781068193626,3.975359344967815E-5,0.012076791152018056
304,807.9200887505763,4.0119517177698026E-5,0.012116910669195754
305,807.1630026745779,4.022319669460405E-5,0.012157133865890358
306,806.3824328172668,4.0256585987264316E-5,0.012197390451877623
307,805.6083325651317,4.035158337831788E-5,0.01223774203525594
308,804.8146213698311,4.0134388005131536E-5,0.012277876423261072
309,803.9890803551791,4.0250691299729276E-5,0.012318127114560802
310,803.1328673847127,4.040918335911011E-5,0.012358536297919913
311,802.3014867542461,4.00245608506772E-5,0.01239856085877059
312,801.444579179646,4.026500709162845E-5,0.01243882586586222
