#t,ESS,tempDiff,temp
0,499.9999999999944,0.0,0.0
1,499.4999999999983,1.3232624615237162E-4,1.3232624615237162E-4
2,498.03571155977664,1.3342764493649384E-4,2.6575389108886543E-4
3,495.66529834339275,1.3269331901455552E-4,3.9844721010342095E-4
4,492.41916283842926,1.321546819835728E-4,5.306018920869938E-4
5,488.3426777447898,1.3467388761984988E-4,6.652757797068437E-4
6,483.4958465101726,1.3618480642507645E-4,8.014605861319202E-4
7,477.91913345426883,1.3495834352221243E-4,9.364189296541326E-4
8,471.68762592295735,1.3795525344114846E-4,0.001074374183095281
9,464.8556480870072,1.385227679877188E-4,0.0012128969510829999
10,457.51371592091056,1.3809549726786168E-4,0.0013509924483508615
11,449.6682759974732,1.3813952668663234E-4,0.0014891319750374938
12,441.33675490403107,1.380751207075385E-4,0.0016272070957450322
13,432.5378342355023,1.3759614433449623E-4,0.0017648032400795284
14,423.3315198998178,1.3732787526441175E-4,0.0019021311153439402
15,413.74210408682995,1.4010435474581063E-4,0.002042235470089751
16,403.80562548407147,1.39348937702762E-4,0.0021815844077925127
17,393.69754960892976,1.397675166454907E-4,0.0023213519244380033
18,383.4312083898793,1.3933612845352594E-4,0.002460688052891529
19,373.1404620355343,1.3970998863597619E-4,0.0026003980415275053
20,362.78653430729497,1.3985024963988592E-4,0.0027402482911673912
21,352.48600438256585,1.3953396900771216E-4,0.0028797822601751033
22,342.1845509433531,1.4110090849372343E-4,0.0030208831686688266
23,331.9372423078279,1.42881196064658E-4,0.0031637643647334846
24,321.6246357406442,1.423283671710102E-4,0.003306092731904495
25,311.31462221962335,1.4388229465255283E-4,0.003449975026557048
26,300.9148079130475,1.4188539480661144E-4,0.0035918604213636593
27,290.43438323387346,1.4268833978360137E-4,0.0037345487611472605
28,280.0761033905218,1.4344738872370792E-4,0.0038779961498709684
29,269.7947553404246,1.412822186806759E-4,0.004019278368551644
30,259.61581715615824,1.423548922590734E-4,0.004161633260810718
31,249.42825454266904,1.4174164770225885E-4,0.004303374908512977
32,499.4999999999977,1.4754779040583794E-4,0.004450922698918815
33,498.0342808340225,1.482719560593757E-4,0.004599194654978191
34,495.6432095640163,1.4982017062732935E-4,0.00474901482560552
35,492.37877831917996,1.5002022806569963E-4,0.00489903505367122
36,488.2885515786021,1.5057714059123843E-4,0.005049612194262458
37,483.46559921198207,1.5070200022583412E-4,0.005200314194488292
38,477.9209201426682,1.5211474228306855E-4,0.00535242893677136
39,471.7867359687906,1.5276096335917953E-4,0.00550518990013054
40,465.0110702442887,1.5296941791404723E-4,0.0056581593180445875
41,457.67447421419917,1.528024230980471E-4,0.005810961741142635
42,449.8111622014656,1.5295379299826267E-4,0.0059639155341408975
43,441.45743926456515,1.5257587166544025E-4,0.006116491405806338
44,432.69446517634793,1.5106698274873237E-4,0.00626755838855507
45,423.501137268171,1.5122044438740568E-4,0.006418778832942476
46,414.01473447838066,1.539748179467222E-4,0.006572753650889198
47,404.1613706009717,1.5282849075666787E-4,0.006725582141645866
48,393.9433498850879,1.525167295259941E-4,0.00687809887117186
49,383.4744997390138,1.544199999493298E-4,0.0070325188711211906
50,372.8064695277569,1.5513603032458494E-4,0.007187654901445776
51,361.90986421566777,1.559551953328985E-4,0.007343610096778674
52,350.90607836878655,1.5664198354668957E-4,0.007500252080325363
53,340.05206543679833,1.5737381595768923E-4,0.0076576258962830525
54,329.1839031214696,1.5936909767103472E-4,0.007816994993954086
55,318.31203594749417,1.5838611119974903E-4,0.007975381105153835
56,307.5641814906873,1.601053764264401E-4,0.008135486481580275
57,296.86987712748333,1.6253216103597428E-4,0.00829801864261625
58,286.33968153370944,1.623450974939106E-4,0.00846036374011016
59,275.91757963245857,1.633645947372619E-4,0.008623728334847421
60,265.6868250068208,1.6595274808049848E-4,0.00878968108292792
61,255.56348238628416,1.6789654784474925E-4,0.00895757763077267
62,245.79231750684787,1.6780536601356937E-4,0.00912538299678624
63,499.500000000003,1.7340274284270723E-4,0.009298785739628947
64,498.0293698226372,1.7419545430289113E-4,0.009472981193931838
65,495.6444138502813,1.754035895700364E-4,0.009648384783501874
66,492.37908524701373,1.7652856072020634E-4,0.00982491334422208
67,488.30520153639185,1.7812489569015233E-4,0.010003038239912233
68,483.4783263364874,1.7658974816385002E-4,0.010179627988076083
69,477.9200535597328,1.761625842209282E-4,0.01035579057229701
70,471.7390123598425,1.7789953946493103E-4,0.010533690111761942
71,465.00527028414785,1.786922255659064E-4,0.010712382337327847
72,457.71275148705877,1.806061198501293E-4,0.010892988457177977
73,449.9499528903754,1.8008244235817106E-4,0.011073070899536148
74,441.79917932974837,1.8317257723036436E-4,0.011256243476766513
75,433.35885478890106,1.8535223271298458E-4,0.011441595709479497
76,424.61358038993234,1.8836082014807786E-4,0.011629956529627575
77,415.5754646068414,1.8989229205886436E-4,0.011819848821686438
78,406.37526786845865,1.9013021005979613E-4,0.012009979031746235
79,396.99009750522185,1.9161799720341546E-4,0.01220159702894965
80,387.49441620293015,1.9533198427179452E-4,0.012396929013221444
81,377.873168030504,1.9761961156745955E-4,0.012594548624788903
82,368.2130488674238,2.0098119566415023E-4,0.012795529820453054
83,358.56127921562796,2.008657209055783E-4,0.012996395541358632
84,348.96111817441414,2.0204847930753905E-4,0.013198444020666172
85,339.3146390972678,2.0513561355739546E-4,0.013403579634223568
86,329.6428331518125,2.088339004730231E-4,0.013612413534696591
87,320.17043865111833,2.0820262839201003E-4,0.0138206161630886
88,310.7730929970059,2.071528039882019E-4,0.014027768967076804
89,301.5272056584448,2.0161694591324926E-4,0.014229385912990052
90,292.3607074213539,2.046749493807068E-4,0.014434060862370758
91,283.1525415742917,2.0287302231485467E-4,0.014636933884685613
92,274.0540969735056,2.0419924321225612E-4,0.014841133127897869
93,265.0457505462107,2.068654646658357E-4,0.015047998592563705
94,256.12351378741164,2.0624355250909828E-4,0.015254242145072802
95,247.36356204328536,2.0986644553635695E-4,0.01546410859060916
96,499.4999999999995,1.9682859858713626E-4,0.015660937189196297
97,498.03688100230875,1.9913301921286754E-4,0.015860070208409165
98,495.6448744423519,1.9998518691504262E-4,0.016060055395324208
99,492.3928841102409,2.0306577750171315E-4,0.016263121172825922
100,488.3152970044794,2.0375238223490936E-4,0.01646687355506083
101,483.46619926786406,2.0542478323081381E-4,0.016672298338291643
102,477.9081932700525,2.046600764400414E-4,0.016876958414731684
103,471.65460686220547,2.069650336728541E-4,0.017083923448404537
104,464.7903644226829,2.0865327752867528E-4,0.017292576725933213
105,457.3007059086458,2.0955741082123028E-4,0.017502134136754444
106,449.2615265089853,2.120218347030163E-4,0.01771415597145746
107,440.7306246089021,2.12025635187042E-4,0.0179261816066445
108,431.7497944600904,2.1147751239764304E-4,0.018137659119042145
109,422.3845193830251,2.10592097014173E-4,0.018348251216056318
110,412.6255803448442,2.1306568254778977E-4,0.01856131689860411
111,402.5749475179436,2.1291496259409417E-4,0.018774231861198202
112,392.27489711979615,2.1400163458696123E-4,0.018988233495785163
113,381.79948691601663,2.1435829249795806E-4,0.01920259178828312
114,371.2537742516033,2.1597352628986954E-4,0.01941856531457299
115,360.6676377590322,2.149139317720652E-4,0.019633479246345058
116,349.9535484094526,2.1855893066509706E-4,0.019852038177010155
117,339.2590695100063,2.1923967556532043E-4,0.020071277852575477
118,328.63238506357953,2.2112651928402508E-4,0.0202924043718595
119,318.1162268013736,2.2088166149736361E-4,0.020513286033356865
120,307.62375369824736,2.2331507328077145E-4,0.020736601106637637
121,297.25367194019634,2.2252543750542596E-4,0.020959126544143062
122,287.01395081023,2.247424519975275E-4,0.021183868996140588
123,276.9878678286404,2.2613261601005957E-4,0.021410001612150648
124,267.2293639518331,2.2643814874999583E-4,0.021636439760900645
125,257.7403435136526,2.2701181523022336E-4,0.021863451576130868
126,248.46524752698662,2.28512255315395E-4,0.02209196383144626
127,499.4999999999922,2.2621753414120064E-4,0.022318181365587463
128,498.03802717462264,2.2669189357089455E-4,0.022544873259158358
129,495.6668295886234,2.2766940846881447E-4,0.022772542667627172
130,492.43419693196637,2.2981196218721452E-4,0.023002354629814387
131,488.39054537700014,2.3265278606635805E-4,0.023235007415880745
132,483.58211632611585,2.3450488336610866E-4,0.023469512299246854
133,478.0557644360809,2.3637487372286603E-4,0.02370588717296972
134,471.8686752819564,2.3656796918601706E-4,0.023942455142155736
135,465.1001376814712,2.3731361704805768E-4,0.024179768759203794
136,457.75982967145313,2.428400599978517E-4,0.024422608819201646
137,449.94440541314947,2.429144252344682E-4,0.024665523244436115
138,441.7086121503057,2.461381387057437E-4,0.02491166138314186
139,433.09231478291656,2.456703188723345E-4,0.025157331702014195
140,424.14989053828236,2.4879251759756486E-4,0.025406124219611758
141,415.0358490838955,2.5097123147090994E-4,0.02565709545108267
142,405.67618678249886,2.5377185542258885E-4,0.02591086730650526
143,396.17980042259893,2.5578602936140554E-4,0.026166653335866666
144,386.60495448781694,2.597443554501048E-4,0.026426397691316772
145,376.920306277751,2.6084658747169766E-4,0.02668724427878847
146,367.24570336274905,2.604217563914576E-4,0.026947666035179927
147,357.6296162289915,2.648865431883867E-4,0.027212552578368313
148,348.0760210968123,2.69941733199075E-4,0.027482494311567386
149,338.58348957046127,2.7400300308746256E-4,0.02775649731465485
150,329.16471698119994,2.7634436917607565E-4,0.028032841683830925
151,319.8194624919795,2.7739208992361397E-4,0.02831023377375454
152,310.59833413392545,2.803631046882287E-4,0.02859059687844277
153,301.48956649812766,2.816198296878077E-4,0.028872216708130578
154,292.48313513155,2.8599271339396163E-4,0.02915820942152454
155,283.6048984640549,2.9093083734368756E-4,0.029449140258868228
156,274.8776815065382,2.9551278888599787E-4,0.029744653047754227
157,266.2328914036155,3.006167244341759E-4,0.030045269772188403
158,257.7510678549218,3.0676121747796165E-4,0.030352030989666365
159,249.33106897149295,3.1102713228831156E-4,0.030663058121954676
160,499.4999999999963,2.998764250176044E-4,0.03096293454697228
161,498.0399231485098,3.057899317434638E-4,0.031268724478715745
162,495.67817134888526,3.066000381865379E-4,0.03157532451690229
163,492.4759341259923,3.051971661446446E-4,0.03188052168304693
164,488.47941027360196,3.068207460881039E-4,0.03218734242913504
165,483.73817291740136,3.107442430153614E-4,0.0324980866721504
166,478.311861342279,3.149994867440236E-4,0.032813086158894424
167,472.26108158100226,3.169551166660216E-4,0.03313004127556045
168,465.65491586480323,3.2246738161034597E-4,0.033452508657170796
169,458.5473487561673,3.233260097626117E-4,0.03377583466693341
170,450.9743251007374,3.2822667831579794E-4,0.03410406134524921
171,442.9579478014731,3.297234040019437E-4,0.034433784749251156
172,434.52757926906685,3.3319438808858794E-4,0.03476697913733975
173,425.74425540815105,3.3591374260357365E-4,0.03510289287994332
174,416.7382370796187,3.3901751379687874E-4,0.0354419103937402
175,407.50604352588664,3.4210044903049456E-4,0.03578401084277069
176,398.1749793232103,3.446073772265215E-4,0.036128618219997216
177,388.65374109962227,3.457315576943282E-4,0.036474349777691546
178,379.0109838327083,3.4767254463308417E-4,0.03682202232232463
179,369.353949303031,3.512365178924873E-4,0.03717325884021712
180,359.7647212838414,3.5708858301143566E-4,0.037530347423228555
181,350.158893377711,3.603067948564508E-4,0.037890654218085004
182,340.653435046628,3.6272356550297503E-4,0.03825337778358798
183,331.1720926648028,3.664507391909037E-4,0.03861982852277888
184,321.8706700784673,3.702763875519993E-4,0.03899010491033088
185,312.67189077798275,3.7325222355048164E-4,0.03936335713388136
186,303.56206864102916,3.762759046963669E-4,0.03973963303857773
187,294.5291331347448,3.7903515253518685E-4,0.04011866819111291
188,285.6530118569747,3.8375065442912697E-4,0.04050241884554204
189,276.9357262654346,3.8358546731870173E-4,0.04088600431286074
190,268.50244139177244,3.873787935563246E-4,0.041273383106417066
191,260.1572032132749,3.912004677340914E-4,0.041664583574151155
192,251.9664422076776,3.9087765619643414E-4,0.04205546123034759
193,243.74513670296903,3.938379957832234E-4,0.04244929922613081
194,499.49999999999665,4.175782438874585E-4,0.04286687747001827
195,498.0294204096803,4.238394463000077E-4,0.04329071691631828
196,495.63205948102143,4.2876655235340127E-4,0.04371948346867168
197,492.3633578167743,4.296349309504473E-4,0.04414911839962213
198,488.2583142183807,4.2922816593210863E-4,0.04457834656555424
199,483.36418036679845,4.3369180084767896E-4,0.04501203836640192
200,477.7212969382026,4.3300427285547076E-4,0.04544504263925739
201,471.40012306818664,4.352330001739923E-4,0.04588027563943138
202,464.4628763080385,4.3090139735748136E-4,0.046311177036788866
203,456.92955276776166,4.356773005358278E-4,0.04674685433732469
204,448.86121231398823,4.351160168777156E-4,0.04718197035420241
205,440.2930417476693,4.348417761301596E-4,0.047616812130332566
206,431.3107471420588,4.4106493023518084E-4,0.048057877060567744
207,422.0065412216802,4.4158382404556193E-4,0.04849946088461331
208,412.31286249658586,4.358409563798723E-4,0.04893530184099318
209,402.25910049268845,4.359197705708685E-4,0.04937122161156405
210,391.9328317131655,4.3376002368413733E-4,0.049804981635248186
211,381.3756463609574,4.3398819203878776E-4,0.050238969827286976
212,370.64624678253574,4.340762624741494E-4,0.05067304608976113
213,359.8229154840854,4.359759628629695E-4,0.0511090220526241
214,348.9157578736095,4.394664981822592E-4,0.051548488550806355
215,337.8480765872378,4.346164199773645E-4,0.05198310497078372
216,326.6873567359534,4.3328392083251654E-4,0.052416388891616233
217,315.48211163231326,4.3552634993370646E-4,0.05285191524154994
218,304.15984619501006,4.4166462136172285E-4,0.05329357986291166
219,292.83585404049114,4.460068126823074E-4,0.05373958667559397
220,281.61944212431274,4.471749183340086E-4,0.054186761593927976
221,270.44811076469875,4.510906135635125E-4,0.05463785220749149
222,259.33560869235345,4.450251720135271E-4,0.05508287737950502
223,248.2311129988876,4.4126303080350087E-4,0.05552414041030852
224,499.4999999999971,4.422532939530691E-4,0.05596639370426159
225,498.01870952488326,4.4506459012580614E-4,0.056411458294387394
226,495.580026128679,4.4922601774206037E-4,0.056860684312129456
227,492.2190363161984,4.5222650328154395E-4,0.057312910815411
228,487.96995792253864,4.539769188078288E-4,0.05776688773421883
229,482.84868851515733,4.5320908319153845E-4,0.05822009681741037
230,476.91672412287494,4.503721403878921E-4,0.05867046895779826
231,470.2026686563865,4.501176085746725E-4,0.05912058656637293
232,462.76633271123717,4.5098812219648143E-4,0.05957157468856941
233,454.6419330542268,4.5272823949643663E-4,0.06002430292806585
234,445.85306144925727,4.5537950456759854E-4,0.06047968243263345
235,436.44272371033446,4.582432907783657E-4,0.060937925723411814
236,426.4883116861178,4.613438726270224E-4,0.061399269596038836
237,416.00743136139835,4.602440014038723E-4,0.06185951359744271
238,405.14744682037724,4.626193493197698E-4,0.06232213294676248
239,393.8705371241476,4.639360844269446E-4,0.06278606903118943
240,382.23856872621485,4.6367799287442716E-4,0.06324974702406386
241,370.3681446700609,4.6759289179230186E-4,0.06371733991585615
242,358.2829561796088,4.683702065146825E-4,0.06418571012237083
243,346.06083543446664,4.6677901007127423E-4,0.0646524891324421
244,333.8256975285858,4.726319892615439E-4,0.06512512112170366
245,321.55180343155797,4.743139198611842E-4,0.06559943504156483
246,309.174693396569,4.722181186657698E-4,0.0660716531602306
247,296.99851420638686,4.760445422982905E-4,0.06654769770252889
248,285.02336759691093,4.7826931992853014E-4,0.06702596702245742
249,273.17606201387935,4.750427342470085E-4,0.06750100975670442
250,261.3859154449352,4.7909351973645905E-4,0.06798010327644088
251,249.733412068142,4.7868698655218107E-4,0.06845879026299306
252,499.4999999999995,5.000445913015648E-4,0.06895883485429463
253,498.01824153739415,5.00647478820565E-4,0.06945948233311519
254,495.57712698785315,5.033782488916465E-4,0.06996286058200683
255,492.19317660591173,5.065498072256211E-4,0.07046941038923245
256,487.902467601684,5.087047560768882E-4,0.07097811514530934
257,482.74702960826204,5.098028343383365E-4,0.07148791797964768
258,476.7648736526443,5.105448794808933E-4,0.07199846285912857
259,470.0122966647219,5.107429433413404E-4,0.07250920580246992
260,462.5637743329871,5.090086498249944E-4,0.07301821445229491
261,454.45469396696836,5.011940236740528E-4,0.07351940847596897
262,445.7674198115088,5.092523799979478E-4,0.07402866085596692
263,436.5329429431227,5.143642407960895E-4,0.07454302509676301
264,426.8596607880902,5.184607921040479E-4,0.07506148588886706
265,416.7760289027885,5.229602845453881E-4,0.07558444617341245
266,406.3378246981732,5.254896944512742E-4,0.07610993586786373
267,395.6546396488559,5.291141985737326E-4,0.07663905006643747
268,384.7649328732167,5.306560866028109E-4,0.07716970615304028
269,373.6682347637161,5.33839606030548E-4,0.07770354575907083
270,362.4546854077595,5.352110556795778E-4,0.07823875681475041
271,351.16678205294915,5.379113746506167E-4,0.07877666818940103
272,339.82131765261414,5.43954756558233E-4,0.07932062294595926
273,328.5198490239733,5.502430143439931E-4,0.07987086596030325
274,317.25660793385026,5.546187316911379E-4,0.08042548469199438
275,306.0549168213196,5.57093385017019E-4,0.0809825780770114
276,294.9467604453611,5.651536748635317E-4,0.08154773175187492
277,284.0545370213524,5.778657821436443E-4,0.08212559753401856
278,273.3257371007823,5.830290723056325E-4,0.08270862660632419
279,262.75908585592697,5.906759889511416E-4,0.08329930259527533
280,252.51804203118184,5.959147106863006E-4,0.08389521730596164
281,242.370558017423,5.949954148069109E-4,0.08449021272076855
282,499.4999999999999,6.191440009154375E-4,0.08510935672168399
283,498.02351736301415,6.192092063770752E-4,0.08572856592806107
284,495.6042477688303,6.24702250655793E-4,0.08635326817871686
285,492.29152645952905,6.281333203833463E-4,0.0869814014991002
286,488.13364545464333,6.354679196048E-4,0.087616869418705
287,483.16774142514595,6.449512497492236E-4,0.08826182066845423
288,477.44281193097913,6.48818470005122E-4,0.08891063913845935
289,471.01000807164166,6.551927941965849E-4,0.08956583193265594
290,463.9366727913251,6.597466999737025E-4,0.09022557863262964
291,456.2646996302266,6.670370445939672E-4,0.0908926156772236
292,448.03229179404343,6.670904074859525E-4,0.09155970608470956
293,439.3345352774894,6.738042420034279E-4,0.092233510326713
294,430.2580648257256,6.782831250326688E-4,0.09291179345174566
295,420.8294667472898,6.710367956668506E-4,0.09358283024741251
296,411.06943359050433,6.815826793221969E-4,0.09426441292673471
297,400.9728434349066,6.903916251922622E-4,0.09495480455192697
298,390.6685294576684,7.014918540704285E-4,0.09565629640599739
299,380.1664186344033,7.058675422619427E-4,0.09636216394825933
300,369.5265833898503,7.107912281670712E-4,0.0970729551764264
301,358.8230307454523,7.11736038265181E-4,0.09778469121469159
302,348.0617624450042,7.221703512932811E-4,0.09850686156598487
303,337.25377958240176,7.28439109751614E-4,0.09923530067573648
304,326.3787646431335,7.366251088919622E-4,0.09997192578462843
305,315.54270871287355,7.379668053132941E-4,0.10070989258994173
306,304.8068538387134,7.428575552843157E-4,0.10145275014522605
307,294.1597998465749,7.488482192233034E-4,0.10220159836444935
308,283.67094571154183,7.585666831768714E-4,0.10296016504762623
309,273.29309311057585,7.619446375359589E-4,0.10372210968516218
310,263.07161436709936,7.654508522678203E-4,0.10448756053743001
311,253.17911454358702,7.783872564141581E-4,0.10526594779384417
