#t,ESS,tempDiff,temp
0,200.00000000000065,0.0,0.0
1,199.9997923686485,7.561344983093171E-6,7.561344983093171E-6
2,199.99914830578925,7.6113087822770765E-6,1.5172653765370248E-5
3,199.9980650438825,7.584929349279371E-6,2.2757583114649617E-5
4,199.99659594455844,7.579024844085243E-6,3.033660795873486E-5
5,199.9947254515034,7.5585420589772994E-6,3.789515001771216E-5
6,199.99247775532473,7.502153853015262E-6,4.539730387072742E-5
7,199.98981281337555,7.501245937145822E-6,5.289854980787324E-5
8,199.98682409510425,7.406847929983729E-6,6.030539773785697E-5
9,199.98342293752546,7.433113951858336E-6,6.77385116897153E-5
10,199.97950728982653,7.63825171037391E-6,7.537676340008921E-5
11,199.9751822465335,7.566079524869478E-6,8.29428429249587E-5
12,199.97039491166746,7.500183108670671E-6,9.044302603362937E-5
13,199.9650202847101,7.575599989798496E-6,9.801862602342786E-5
14,199.95917510045268,7.555412238097006E-6,1.0557403826152486E-4
15,199.95291839459242,7.534705881321841E-6,1.1310874414284671E-4
16,199.94636720537773,7.489331189575162E-6,1.2059807533242187E-4
17,199.9392686119094,7.58156934922292E-6,1.2817964468164479E-4
18,199.9316829026507,7.664615360860585E-6,1.3584426004250536E-4
19,199.92365146132045,7.614590878837983E-6,1.4345885092134335E-4
20,199.91518833456485,7.544146092006145E-6,1.510029970133495E-4
21,199.9064816428889,7.451301683563098E-6,1.584542986969126E-4
22,199.8971640653205,7.599451129199193E-6,1.6605374982611178E-4
23,199.88736473676155,7.675635587388308E-6,1.737293854135001E-4
24,199.87761582909488,7.448346731078975E-6,1.8117773214457907E-4
25,199.86757727906723,7.353092874786661E-6,1.8853082501936574E-4
26,199.8573097521923,7.303940938988237E-6,1.95834765958354E-4
27,199.84660507253992,7.3569038391583756E-6,2.0319166979751238E-4
28,199.8355925721075,7.474067436428569E-6,2.1066573723394096E-4
29,199.82393560037258,7.518535704272487E-6,2.1818427293821344E-4
30,199.811955675089,7.464109708101405E-6,2.2564838264631484E-4
31,199.79935617524973,7.5741647579688365E-6,2.3322254740428368E-4
32,199.78628062603698,7.598659061472404E-6,2.408212064657561E-4
33,199.77264433606635,7.721363083191437E-6,2.4854256954894753E-4
34,199.759117621791,7.624280599289472E-6,2.56166850148237E-4
35,199.7450699230678,7.605471883837934E-6,2.6377232203207495E-4
36,199.73094328910315,7.420457068129798E-6,2.711927791002048E-4
37,199.71611615552712,7.496978262866459E-6,2.786897573630712E-4
38,199.7012231704974,7.446829468881319E-6,2.8613658683195254E-4
39,199.68628133157486,7.341463787085669E-6,2.934780506190382E-4
40,199.6711242790595,7.2784723463623456E-6,3.0075652296540054E-4
41,199.65553679169747,7.330703701952416E-6,3.0808722666735293E-4
42,199.6394468191428,7.445340307369074E-6,3.15532566974722E-4
43,199.6229794138252,7.3307602178216814E-6,3.228633271925437E-4
44,199.6063209762623,7.373076010036E-6,3.302364032025797E-4
45,199.58974812829075,7.372014009492586E-6,3.376084172120723E-4
46,199.57323589816187,7.252787907289664E-6,3.4486120511936194E-4
47,199.55673713923352,7.175959870207118E-6,3.520371649895691E-4
48,199.540402913328,7.248595262609201E-6,3.5928576025217825E-4
49,199.52377035914165,7.289388400643525E-6,3.665751486528218E-4
50,199.50642012996204,7.36892436870034E-6,3.739440730215221E-4
51,199.48858214880073,7.451740408620678E-6,3.8139581343014277E-4
52,199.4699887857013,7.557254358386689E-6,3.8895306778852944E-4
53,199.45077165510648,7.548053077035331E-6,3.965011208655648E-4
54,199.43165659476463,7.4701027146880425E-6,4.039712235802528E-4
55,199.41268662660104,7.43330282377248E-6,4.114045264040253E-4
56,199.39392519548161,7.324627781897622E-6,4.187291541859229E-4
57,199.37513627474064,7.191419159793716E-6,4.259205733457166E-4
58,199.35576422815996,7.175757688693807E-6,4.330963310344104E-4
59,199.33587144572343,7.126657665324898E-6,4.402229886997353E-4
60,199.31563034733603,7.1234903947393515E-6,4.4734647909447465E-4
61,199.2949927946297,7.138816049584823E-6,4.5448529514405944E-4
62,199.2741020633714,7.178707842588763E-6,4.6166400298664823E-4
63,199.2531205156479,7.120085444548969E-6,4.687840884311972E-4
64,199.23134670801764,7.121483333498735E-6,4.759055717646959E-4
65,199.2093726363044,7.170966745328796E-6,4.830765385100247E-4
66,199.1870849415893,7.114369518603113E-6,4.901909080286278E-4
67,199.16487192472619,7.139653040541952E-6,4.973305610691698E-4
68,199.14282476690593,7.062716610116575E-6,5.043932776792864E-4
69,199.12080374811487,6.904662813826731E-6,5.11297940493113E-4
70,199.09879305322113,6.853984206335398E-6,5.181519246994484E-4
71,199.07656144319222,6.997648840274885E-6,5.251495735397233E-4
72,199.05402523421552,7.004894456704908E-6,5.321544679964282E-4
73,199.03160350990785,6.933749005204418E-6,5.390882170016327E-4
74,199.008660624378,7.001189507379724E-6,5.460894065090124E-4
75,198.98550968806828,7.0574581311306265E-6,5.53146864640143E-4
76,198.96167161184565,7.193460600728363E-6,5.603403252408714E-4
77,198.93782232951122,7.1480494082688615E-6,5.674883746491403E-4
78,198.9135499900409,7.26171469909145E-6,5.747500893482317E-4
79,198.88882427043924,7.231044571410785E-6,5.819811339196425E-4
80,198.8637067529492,7.265496090331061E-6,5.892466300099735E-4
81,198.83792689594293,7.378253266290422E-6,5.966248832762639E-4
82,198.81191906383802,7.188890285329551E-6,6.038137735615935E-4
83,198.78607439254048,7.137017404485963E-6,6.109507909660795E-4
84,198.76031308397185,7.1021612913870846E-6,6.180529522574666E-4
85,198.734391121416,7.116600303943902E-6,6.251695525614104E-4
86,198.7081988526146,7.061617530511115E-6,6.322311700919216E-4
87,198.68104127813763,7.158905532167004E-6,6.393900756240886E-4
88,198.65398553520876,7.1104771106427745E-6,6.465005527347314E-4
89,198.6264160856887,7.153493978242401E-6,6.536540467129738E-4
90,198.5989083259903,7.080830301546926E-6,6.607348770145207E-4
91,198.57126792286408,7.011739109125823E-6,6.677466161236466E-4
92,198.54339627355333,7.0086174247409275E-6,6.747552335483875E-4
93,198.51543365506421,6.957090710271483E-6,6.81712324258659E-4
94,198.486779434378,7.021648246923617E-6,6.887339725055826E-4
95,198.45802486776094,6.943811882097384E-6,6.9567778438768E-4
96,198.4294719887275,6.847665594576887E-6,7.025254499822569E-4
97,198.40057260547522,6.785764575020024E-6,7.093112145572769E-4
98,198.371046541163,6.786981577029926E-6,7.160981961343068E-4
99,198.34141812788042,6.800025354538461E-6,7.228982214888453E-4
100,198.31081472087322,6.905014529622753E-6,7.29803236018468E-4
101,198.27936023934353,7.002555141450742E-6,7.368057911599187E-4
102,198.24607293239245,7.075932734808895E-6,7.438817238947276E-4
103,198.21209521652509,7.1162565148438426E-6,7.509979804095714E-4
104,198.17873709371506,7.026678993395773E-6,7.580246594029672E-4
105,198.14500042837378,6.995435699430405E-6,7.650200951023976E-4
106,198.11132631087096,6.9857335029401495E-6,7.720058286053378E-4
107,198.07720329883023,6.983952220510241E-6,7.78989780825848E-4
108,198.042816783356,6.996701943973634E-6,7.859864827698216E-4
109,198.0074504129095,7.040559860363434E-6,7.93027042630185E-4
110,197.97196225342705,7.083902151183535E-6,8.001109447813686E-4
111,197.9372133721442,6.9257699907414135E-6,8.0703671477211E-4
112,197.9030532934708,6.905687588102746E-6,8.139424023602128E-4
113,197.86807118045851,6.940301545786898E-6,8.208827039059997E-4
114,197.8329482035728,6.962026146951969E-6,8.278447300529517E-4
115,197.79798289150085,6.880066774203346E-6,8.34724796827155E-4
116,197.7627335514894,6.9345497526229134E-6,8.416593465797779E-4
117,197.7276355167674,6.8672702777561505E-6,8.485266168575341E-4
118,197.6923819348481,6.757665574636264E-6,8.552842824321703E-4
119,197.65725058497554,6.760782375448407E-6,8.620450648076187E-4
120,197.62226503022146,6.727682770578319E-6,8.68772747578197E-4
121,197.58682923830997,6.782589754837781E-6,8.755553373330347E-4
122,197.5508750631037,6.911786010555973E-6,8.824671233435907E-4
123,197.5145598849424,6.96380193366307E-6,8.894309252772538E-4
124,197.47859595251578,6.840900978660535E-6,8.962718262559143E-4
125,197.44164532709632,6.9060512823672E-6,9.031778775382815E-4
126,197.4040851087077,6.978289918865116E-6,9.101561674571466E-4
127,197.3665660595301,6.967437274158058E-6,9.171236047313047E-4
128,197.32912903496347,6.910297002801103E-6,9.240339017341058E-4
129,197.2920166300747,6.803844723722417E-6,9.308377464578282E-4
130,197.2544562110651,6.84743766647206E-6,9.376851841243003E-4
131,197.21662294969684,6.885308485610251E-6,9.445704926099105E-4
132,197.17809114418407,6.9316390952966655E-6,9.515021317052072E-4
133,197.13897201444573,6.886661728582469E-6,9.583887934337897E-4
134,197.09964970281644,6.89904681300061E-6,9.652878402467903E-4
135,197.0610979462341,6.828388441872651E-6,9.72116228688663E-4
136,197.02301909876206,6.664487699158851E-6,9.78780716387822E-4
137,196.98447461599307,6.57737736346679E-6,9.853580937512888E-4
138,196.9471444990222,6.47494130841035E-6,9.918330350596992E-4
139,196.9098896601233,6.467167099579834E-6,9.98300202159279E-4
140,196.87333687108497,6.417024273658282E-6,0.0010047172264329373
141,196.83640600861847,6.411068583253864E-6,0.0010111282950161912
142,196.799728736992,6.429667452964661E-6,0.001017557962469156
143,196.7628213896489,6.341651128506672E-6,0.0010238996135976625
144,196.7256269745687,6.326060576022103E-6,0.0010302256741736846
145,196.68885993344836,6.297026460054241E-6,0.0010365227006337388
146,196.65188592166692,6.275355257121749E-6,0.0010427980558908605
147,196.61433867933982,6.332173841354813E-6,0.0010491302297322154
148,196.576542021627,6.399815102258377E-6,0.0010555300448344736
149,196.53737468501015,6.533395607086686E-6,0.0010620634404415604
150,196.4974805791589,6.595326002891826E-6,0.0010686587664444523
151,196.4572376234794,6.6379149402076366E-6,0.00107529668138466
152,196.4174649699335,6.636984024186656E-6,0.0010819336654088467
153,196.37747864770668,6.6121656412911694E-6,0.0010885458310501378
154,196.33793464708418,6.4427860627835E-6,0.0010949886171129214
155,196.29860046313064,6.468301724606338E-6,0.0011014569188375278
156,196.2581021420864,6.596925915730024E-6,0.0011080538447532577
157,196.2175547985758,6.592341338434326E-6,0.001114646186091692
158,196.17645378614986,6.663564019818385E-6,0.0011213097501115103
159,196.13590701616587,6.609199809112292E-6,0.0011279189499206225
160,196.09504940310748,6.6605246971965855E-6,0.0011345794746178191
161,196.05490180271744,6.635661810101242E-6,0.0011412151364279203
162,196.01441556088372,6.5987111649052574E-6,0.0011478138475928255
163,195.97331592920258,6.608532912279937E-6,0.0011544223805051055
164,195.93198049661035,6.469578352686798E-6,0.0011608919588577923
165,195.89018194523507,6.492549057307215E-6,0.0011673845079150996
166,195.8493559306545,6.523036234904593E-6,0.0011739075441500042
167,195.80725250474092,6.619566620959353E-6,0.0011805271107709636
168,195.76471266597753,6.606690640253119E-6,0.0011871338014112166
169,195.7218309311493,6.5638062628155545E-6,0.0011936976076740323
170,195.67924666683444,6.499452003817785E-6,0.00120019705967785
171,195.63674040015394,6.477441904784231E-6,0.0012066745015826342
172,195.59326082000152,6.547811532699823E-6,0.001213222313115334
173,195.55048996924174,6.477065745092206E-6,0.0012196993788604262
174,195.5080510872931,6.400551350483382E-6,0.0012260999302109096
175,195.46605299036798,6.387283062296655E-6,0.0012324872132732064
176,195.42283774002263,6.495047712219581E-6,0.001238982260985426
177,195.37974068563312,6.487741022250693E-6,0.0012454700020076766
178,195.33644270868336,6.5175376859232795E-6,0.0012519875396936
179,195.2933175824158,6.467745883859466E-6,0.0012584552855774594
180,195.25068870707887,6.4198163401383886E-6,0.0012648751019175978
181,195.20733663822307,6.490630584667976E-6,0.0012713657325022657
182,195.1635383264374,6.559543235084279E-6,0.00127792527573735
183,195.11835066512842,6.673443163101479E-6,0.0012845987189004514
184,195.07221773366007,6.71861691179537E-6,0.0012913173358122469
185,195.02692869304934,6.737590125879794E-6,0.0012980549259381266
186,194.9818213575553,6.751362250934824E-6,0.0013048062881890615
187,194.93809397876188,6.725213993711595E-6,0.0013115315021827731
188,194.89491146578862,6.770028992225479E-6,0.0013183015311749985
189,194.85159393813623,6.7133050600953275E-6,0.0013250148362350938
190,194.80823024427949,6.647328490444657E-6,0.0013316621647255385
191,194.76447029341742,6.650194342999127E-6,0.0013383123590685376
192,194.72046893264167,6.740772617105285E-6,0.001345053131685643
193,194.67609919822158,6.7720929593135135E-6,0.0013518252246449566
194,194.63008344372085,6.896992496350721E-6,0.0013587222171413072
195,194.583859650554,6.9496716305438124E-6,0.001365671888771851
196,194.53694568766096,6.9364430524375E-6,0.0013726083318242885
197,194.4892257828659,6.988695321285611E-6,0.0013795970271455742
198,194.4404363650566,7.108392979299754E-6,0.001386705420124874
199,194.3912860318848,7.134540071423689E-6,0.0013938399601962977
200,194.3407475970845,7.2779826804706575E-6,0.0014011179428767683
201,194.29015505742223,7.210465427030442E-6,0.0014083284083037987
202,194.23819462842837,7.250181208059815E-6,0.0014155785895118584
203,194.18488214832038,7.213928930882641E-6,0.001422792518442741
204,194.13115591666573,7.1898229428394585E-6,0.0014299823413855804
205,194.07838936013155,7.135973042913365E-6,0.0014371183144284937
206,194.0274637662505,6.972386898909382E-6,0.0014440907013274031
207,193.976298570824,6.837946803455007E-6,0.0014509286481308582
208,193.92594099392701,6.781618554375006E-6,0.0014577102666852332
209,193.8741674126164,6.7734815676264454E-6,0.0014644837482528598
210,193.82132237604642,6.740472228126446E-6,0.0014712242204809863
211,193.76623717424033,6.823267151250447E-6,0.0014780474876322368
212,193.71111048445164,6.8362825222956204E-6,0.0014848837701545324
213,193.65602160561644,6.824115516190531E-6,0.0014917078856707228
214,193.60063562369854,6.838368056281887E-6,0.0014985462537270048
215,193.54478957070657,6.795879276800656E-6,0.0015053421330038055
216,193.48791447354088,6.775552718520572E-6,0.001512117685722326
217,193.43180634123223,6.733349490643733E-6,0.0015188510352129698
218,193.3755823870593,6.58833462913432E-6,0.0015254393698421042
219,193.31924345044675,6.5728980986418704E-6,0.0015320122679407461
220,193.26204681651885,6.584313071311193E-6,0.0015385965810120574
221,193.20501397850308,6.503515423324764E-6,0.0015451000964353822
222,193.14803448522338,6.466058469028301E-6,0.0015515661549044106
223,193.09090995868138,6.360636859963846E-6,0.0015579267917643744
224,193.033770340496,6.262366464311535E-6,0.001564189158228686
225,192.97743150961577,6.323849198007877E-6,0.0015705130074266938
226,192.92197259747502,6.274237345839116E-6,0.0015767872447725328
227,192.86688812512085,6.242638304726711E-6,0.0015830298830772594
228,192.81105230101073,6.2600218534704E-6,0.0015892899049307298
229,192.75388012966394,6.315334183024253E-6,0.001595605239113754
230,192.69725875018983,6.3407185961413014E-6,0.0016019459577098951
231,192.64029824974102,6.334014960464203E-6,0.0016082799726703594
232,192.58321727191526,6.358835030786959E-6,0.0016146388077011465
233,192.5257538040734,6.39668899511117E-6,0.0016210354966962577
234,192.46799689057144,6.399247143073042E-6,0.0016274347438393307
235,192.40938527891146,6.381452752676571E-6,0.0016338161965920074
236,192.352858441225,6.280111001188712E-6,0.001640096307593196
237,192.29699816760333,6.239692521721328E-6,0.0016463360001149174
238,192.24192350587185,6.1562471814449654E-6,0.0016524922472963624
239,192.1859872369546,6.056136650935782E-6,0.0016585483839472981
240,192.13018295562205,6.030458201050174E-6,0.0016645788421483483
241,192.07329114841443,6.018304447568722E-6,0.001670597146595917
242,192.01580493127182,6.077852309099018E-6,0.0016766749989050162
243,191.95808771784758,6.129351463384885E-6,0.0016828043503684012
244,191.89942498289415,6.138243838438186E-6,0.0016889425942068392
245,191.83954625761442,6.114341630757622E-6,0.0016950569358375968
246,191.77905432350823,6.0923673683238644E-6,0.0017011493032059205
247,191.71900768945892,6.180419260841585E-6,0.001707329722466762
248,191.65909117924633,6.266793486916096E-6,0.0017135965159536782
249,191.60030328221086,6.187626687431784E-6,0.0017197841426411099
250,191.54312561254724,6.164783329441203E-6,0.001725948925970551
251,191.48688416277915,6.065157662681895E-6,0.001732014083633233
252,191.4295889102712,6.174754626157311E-6,0.0017381888382593904
253,191.37254047685482,6.200556663958293E-6,0.0017443893949233486
254,191.3146287322724,6.197118390173866E-6,0.0017505865133135225
255,191.25727617617338,6.2103026752718875E-6,0.0017567968159887945
256,191.20111446393616,6.201686392105382E-6,0.0017629985023809
257,191.1453984933437,6.140596530457933E-6,0.001769139098911358
258,191.08994989241637,6.140582355616534E-6,0.0017752796812669745
259,191.034364314517,5.977075695224591E-6,0.001781256756962199
260,190.97806361861444,5.955616458955909E-6,0.001787212373421155
261,190.9209343265145,5.961309939583248E-6,0.0017931736833607381
262,190.86378008930714,5.980547091810153E-6,0.0017991542304525482
263,190.80616921525638,6.046258153714435E-6,0.0018052004886062625
264,190.7472951358957,6.1105186567661135E-6,0.0018113110072630286
265,190.6881640242038,6.182836726613681E-6,0.0018174938439896424
266,190.62960653611566,6.205394042748916E-6,0.0018236992380323913
267,190.57138087918605,6.113402356866069E-6,0.0018298126403892574
268,190.51270220349434,6.069995895473035E-6,0.0018358826362847305
269,190.45393888678416,6.139045611881175E-6,0.0018420216818966116
270,190.39465053757044,6.274391248670753E-6,0.0018482960731452823
271,190.33442308864483,6.388787236428241E-6,0.0018546848603817104
272,190.27473114369454,6.373117848489591E-6,0.0018610579782302
273,190.21343399522252,6.4358026176956715E-6,0.0018674937808478957
274,190.15370258936116,6.319471539853222E-6,0.001873813252387749
275,190.0937011763429,6.378387700904923E-6,0.0018801916400886538
276,190.03463514185225,6.3549812206102095E-6,0.001886546621309264
277,189.9757658227663,6.42962720742093E-6,0.0018929762485166849
278,189.9179229053025,6.435709358557764E-6,0.0018994119578752426
279,189.85961957250558,6.424937066627983E-6,0.0019058368949418706
280,189.80272497401614,6.393153236628857E-6,0.0019122300481784994
281,189.74520763867068,6.364785509230629E-6,0.00191859483368773
282,189.68839827708828,6.332772150453623E-6,0.0019249276058381835
283,189.6317376461967,6.325341010736579E-6,0.00193125294684892
284,189.5742508288455,6.371048841642099E-6,0.0019376239956905622
285,189.51703823475225,6.384124869486316E-6,0.0019440081205600486
286,189.4591189206005,6.373618952825364E-6,0.001950381739512874
287,189.40147270302975,6.371348273816855E-6,0.001956753087786691
288,189.34224583470936,6.42919563665414E-6,0.001963182283423345
289,189.28289482209937,6.484471184795272E-6,0.0019696667546081404
290,189.22525497299472,6.380128986681617E-6,0.001976046883594822
291,189.1665075474391,6.355289580476225E-6,0.001982402173175298
292,189.1083725310011,6.257778330648935E-6,0.001988659951505947
293,189.0506304939636,6.141286266858114E-6,0.0019948012377728054
294,188.99203991926686,6.048804875682288E-6,0.002000850042648488
295,188.93384287317127,6.058525578891067E-6,0.0020069085682273787
296,188.87601024099646,6.0617991166776135E-6,0.0020129703673440564
297,188.817179537587,6.117315078372493E-6,0.002019087682422429
298,188.75747672079234,6.264176752597751E-6,0.0020253518591750266
299,188.69745253634065,6.2616260000016456E-6,0.0020316134851750284
300,188.6379089679715,6.329128694062318E-6,0.0020379426138690906
301,188.57752081341025,6.4026492927315154E-6,0.002044345263161822
302,188.51827269811696,6.357287720705083E-6,0.0020507025508825273
303,188.45809929808865,6.420524358405711E-6,0.002057123075240933
304,188.39845420450212,6.351051256064976E-6,0.002063474126496998
305,188.33771942267245,6.337230859260974E-6,0.0020698113573562587
306,188.275972165101,6.38889559352408E-6,0.002076200252949783
307,188.21562258214402,6.322411111293995E-6,0.002082522664061077
308,188.1539306544864,6.338889039347934E-6,0.002088861553100425
