#t,ESS,tempDiff,temp
0,200.00000000000065,0.0,0.0
1,199.99980647735384,5.492480490111387E-6,5.492480490111387E-6
2,199.99922390364645,5.450300557680216E-6,1.0942781047791602E-5
3,199.99827604047778,5.410328975931852E-6,1.6353110023723453E-5
4,199.99697107867624,5.391693503891925E-6,2.1744803527615377E-5
5,199.99531595103446,5.380558305231019E-6,2.7125361832846395E-5
6,199.99332183762832,5.362035674464458E-6,3.2487397507310856E-5
7,199.99095669183237,5.39816452901149E-6,3.788556203632234E-5
8,199.98820665371102,5.435227253206527E-6,4.332078928952887E-5
9,199.98511180172676,5.375825126706151E-6,4.869661441623502E-5
10,199.98163208740115,5.377205746550188E-6,5.407382016278521E-5
11,199.97784014964455,5.329382695978276E-6,5.9403202858763486E-5
12,199.97364767857783,5.325243683296455E-6,6.472844654205994E-5
13,199.96924479301353,5.21896620041951E-6,6.994741274247945E-5
14,199.96449379673462,5.2561515854703E-6,7.520356432794975E-5
15,199.95958348407913,5.195115296395484E-6,8.039867962434523E-5
16,199.9543680447517,5.219234096615544E-6,8.561791372096077E-5
17,199.94895031147024,5.162963075276778E-6,9.078087679623755E-5
18,199.94321387657925,5.1628466768173566E-6,9.59437234730549E-5
19,199.93718951975066,5.130485940677617E-6,1.0107420941373252E-4
20,199.93078951856936,5.142661684140061E-6,1.0621687109787257E-4
21,199.92405096352954,5.117043453730144E-6,1.1133391455160272E-4
22,199.9171307946404,4.988434588807861E-6,1.1632234914041058E-4
23,199.9100185703872,4.94621941615719E-6,1.2126856855656777E-4
24,199.9026320669945,4.9365527566653965E-6,1.2620512131323317E-4
25,199.8949489399169,4.997616046843986E-6,1.3120273736007715E-4
26,199.88697484263002,5.0277025062702236E-6,1.3623043986634738E-4
27,199.87873482574,4.98278331196714E-6,1.412132231783145E-4
28,199.8700482994501,5.040105478771868E-6,1.4625332865708638E-4
29,199.86090570443884,5.095649087824318E-6,1.5134897774491069E-4
30,199.85142515504657,5.094225217650929E-6,1.564432029625616E-4
31,199.84167212660824,5.086029630348017E-6,1.6152923259290963E-4
32,199.83165366533933,5.0527012920939325E-6,1.6658193388500357E-4
33,199.8213195164319,5.045139352128597E-6,1.7162707323713217E-4
34,199.81077218225124,4.99192087480844E-6,1.766189941119406E-4
35,199.8000855767513,4.905631345184251E-6,1.8152462545712486E-4
36,199.78908927543884,4.930930880504403E-6,1.8645555633762926E-4
37,199.7779563011401,4.901357983896682E-6,1.9135691432152594E-4
38,199.76634365309735,4.939419075870687E-6,1.9629633339739662E-4
39,199.75459741520632,4.8831975840852765E-6,2.011795309814819E-4
40,199.74264972697694,4.898428539136085E-6,2.06077959520618E-4
41,199.73017584813618,4.98320563141303E-6,2.1106116515203104E-4
42,199.71727784187178,4.974008646520399E-6,2.1603517379855142E-4
43,199.7040125092407,5.023162923929013E-6,2.2105833672248043E-4
44,199.6906609377632,5.0097767703727005E-6,2.2606811349285314E-4
45,199.67696273571627,5.019831430463903E-6,2.3108794492331705E-4
46,199.66300503906626,5.015865709706837E-6,2.3610381063302388E-4
47,199.64882778586664,4.982484989838941E-6,2.4108629562286283E-4
48,199.6343322212367,4.987357309089307E-6,2.4607365293195213E-4
49,199.61956511246385,4.978672717820248E-6,2.510523256497724E-4
50,199.60458426860112,4.970865376682204E-6,2.5602319102645455E-4
51,199.58946922392707,4.942622040196057E-6,2.609658130666506E-4
52,199.5741811454873,4.952240914392754E-6,2.6591805398104335E-4
53,199.55841615651357,5.008015812408737E-6,2.709260697934521E-4
54,199.5425907644016,4.970976722848196E-6,2.758970465163003E-4
55,199.52669404572458,4.96839613053323E-6,2.808654426468335E-4
56,199.5108206563748,4.948983016081634E-6,2.8581442566291514E-4
57,199.49504998158292,4.965358614356174E-6,2.907797842772713E-4
58,199.47890329153242,4.949039021187582E-6,2.9572882329845885E-4
59,199.4618769425648,5.02569019849609E-6,3.0075451349695495E-4
60,199.4445629699652,5.045566338914606E-6,3.0580007983586953E-4
61,199.42711261599084,4.9764489034980845E-6,3.1077652873936763E-4
62,199.4094169369743,4.974912042563234E-6,3.157514407819309E-4
63,199.3911914671685,5.007310000528342E-6,3.2075875078245924E-4
64,199.37258931915576,4.994472167501001E-6,3.257532229499602E-4
65,199.35367695443318,5.020782191602776E-6,3.30774005141563E-4
66,199.3348142734162,4.977650996566174E-6,3.357516561381292E-4
67,199.3158716476009,4.965210706499042E-6,3.407168668446282E-4
68,199.29631899704276,5.052658884719274E-6,3.457695257293475E-4
69,199.27619794586798,5.1130684154979864E-6,3.5088259414484547E-4
70,199.2558592109255,5.13802278295118E-6,3.5602061692779663E-4
71,199.23533506922985,5.144588855761339E-6,3.61165205783558E-4
72,199.21410232109798,5.139058737947214E-6,3.663042645215052E-4
73,199.1919275545977,5.155781449014825E-6,3.7146004597052003E-4
74,199.1696564019274,5.155310927256164E-6,3.766153568977762E-4
75,199.1470235848212,5.170756513552277E-6,3.817861134113285E-4
76,199.1243162595141,5.158213342903043E-6,3.8694432675423154E-4
77,199.10181923181207,5.115151256058492E-6,3.9205947801029004E-4
78,199.07962610918275,5.056083126116054E-6,3.971155611364061E-4
79,199.05725053199833,5.032812616644379E-6,4.0214837375305044E-4
80,199.03468768733538,5.001023730784914E-6,4.0714939748383533E-4
81,199.01185698752892,4.97493304169712E-6,4.1212433052553244E-4
82,198.9881037853676,5.070512776697205E-6,4.1719484330222966E-4
83,198.96481033952196,5.046823505295824E-6,4.222416668075255E-4
84,198.94128529786477,5.080899427533761E-6,4.273225662350593E-4
85,198.91764324500474,5.074767651298084E-6,4.3239733388635736E-4
86,198.89323847493011,5.081716984484393E-6,4.374790508708418E-4
87,198.86863521454902,5.060459735522219E-6,4.42539510606364E-4
88,198.84366934781852,5.038903479127054E-6,4.47578414085491E-4
89,198.8185329994479,5.01823716399078E-6,4.525966512494818E-4
90,198.79282481592685,5.048273803530336E-6,4.576449250530121E-4
91,198.76642487896277,5.128395489084794E-6,4.627733205420969E-4
92,198.7398536852589,5.090020428546915E-6,4.678633409706438E-4
93,198.71296855453477,5.141659444795761E-6,4.730050004154396E-4
94,198.68593543099138,5.131401275689548E-6,4.7813640169112913E-4
95,198.6589018822036,5.158657129413158E-6,4.832950588205423E-4
96,198.6314843876484,5.162138499719911E-6,4.884571973202622E-4
97,198.60334972461197,5.237689950413867E-6,4.936948872706761E-4
98,198.57519603933073,5.212309804821856E-6,4.98907197075498E-4
99,198.54692834089144,5.187552498351589E-6,5.040947495738496E-4
100,198.51842626317364,5.149407650305713E-6,5.092441572241553E-4
101,198.49035587075977,5.071703296244815E-6,5.143158605204002E-4
102,198.46197587812082,5.139292433206732E-6,5.194551529536069E-4
103,198.43350447798525,5.186157503513272E-6,5.246413104571201E-4
104,198.4048819727137,5.221109387609483E-6,5.298624198447296E-4
105,198.37570964725452,5.245205984440593E-6,5.351076258291702E-4
106,198.34594199483223,5.210032169490348E-6,5.403176579986606E-4
107,198.31681214607235,5.129064242204092E-6,5.454467222408647E-4
108,198.28785009215622,5.083709316890059E-6,5.505304315577547E-4
109,198.25899014179626,5.077437052821365E-6,5.556078686105761E-4
110,198.22975594768778,5.076588428015301E-6,5.606844570385914E-4
111,198.2005966275319,5.069739516198874E-6,5.657541965547903E-4
112,198.171105058786,5.078676560329589E-6,5.708328731151199E-4
113,198.1418832788052,5.071576309899691E-6,5.759044494250196E-4
114,198.11264842950587,5.06608180040769E-6,5.809705312254272E-4
115,198.08256939580878,5.098638906318902E-6,5.860691701317462E-4
116,198.05225351647925,5.10310480531399E-6,5.911722749370601E-4
117,198.0215347795246,5.096336896168044E-6,5.962686118332282E-4
118,197.99072443757882,5.104081692984905E-6,6.013726935262131E-4
119,197.95937604577242,5.174722852937787E-6,6.065474163791509E-4
120,197.92770347532908,5.215973356746244E-6,6.117633897358972E-4
121,197.89619487160556,5.229139132206141E-6,6.169925288681033E-4
122,197.86508130182372,5.149125944873654E-6,6.221416548129769E-4
123,197.834057722895,5.1099124384290235E-6,6.27251567251406E-4
124,197.80332031696747,5.10641118110537E-6,6.323579784325114E-4
125,197.77221965816548,5.072969002656708E-6,6.374309474351681E-4
126,197.74180780141094,4.989002625343193E-6,6.424199500605112E-4
127,197.7117929004311,4.910087208309119E-6,6.473300372688204E-4
128,197.68132406968468,4.924925603756289E-6,6.522549628725767E-4
129,197.65071089442407,4.950533046983633E-6,6.572054959195603E-4
130,197.6204255229527,4.911299529808467E-6,6.621167954493687E-4
131,197.59009954255697,4.965495339321917E-6,6.670822907886906E-4
132,197.5595759902653,4.960635429355009E-6,6.720429262180456E-4
133,197.5287769597145,4.918345377210676E-6,6.769612715952563E-4
134,197.49787114555016,4.919702776868945E-6,6.818809743721252E-4
135,197.4672026388575,4.902775631425249E-6,6.867837500035505E-4
136,197.43679101063188,4.86492627667729E-6,6.916486762802278E-4
137,197.40588635724114,4.845526382598378E-6,6.964942026628262E-4
138,197.37500014620855,4.949775106271989E-6,7.014439777690982E-4
139,197.34388009574198,4.975828519196162E-6,7.064198062882943E-4
140,197.3128012887071,4.992806728022178E-6,7.114126130163164E-4
141,197.2818363781046,5.0164189988257085E-6,7.164290320151421E-4
142,197.2506761182617,5.043851243697683E-6,7.214728832588398E-4
143,197.2189725291101,4.98408677514894E-6,7.264569700339887E-4
144,197.18718884122856,5.023730336961488E-6,7.314807003709502E-4
145,197.1557974480066,4.96051322559572E-6,7.36441213596546E-4
146,197.1240612069973,5.0190094641957054E-6,7.414602230607416E-4
147,197.09293731701774,5.0025175999883815E-6,7.4646274066073E-4
148,197.06147777278315,4.95600888182102E-6,7.514187495425511E-4
149,197.0297752332136,4.972083247849525E-6,7.563908327904006E-4
150,196.99848634882898,4.933439017905996E-6,7.613242718083065E-4
151,196.96578150312897,5.015475919501943E-6,7.663397477278085E-4
152,196.93307942203398,5.059820685795474E-6,7.713995684136039E-4
153,196.89945579087146,5.061060094361695E-6,7.764606285079656E-4
154,196.866296783566,4.989872070674945E-6,7.814505005786405E-4
155,196.8327597697221,5.057814588495332E-6,7.865083151671359E-4
156,196.79871957653987,5.062869038756266E-6,7.915711842058921E-4
157,196.7645237892877,5.08583153258358E-6,7.966570157384757E-4
158,196.7297065760707,5.04521636462214E-6,8.017022321030979E-4
159,196.6948923217763,5.009171157425451E-6,8.067114032605233E-4
160,196.6601752953372,4.990816363915984E-6,8.117022196244393E-4
161,196.62557964024586,4.985593083722043E-6,8.166878127081613E-4
162,196.59049995285457,5.044552378003567E-6,8.217323650861648E-4
163,196.5551463512855,5.030541433376374E-6,8.267629065195412E-4
164,196.5198003665766,5.0050378180345235E-6,8.317679443375757E-4
165,196.48433329703175,4.974970640607452E-6,8.367429149781831E-4
166,196.44875075985018,4.962459881489163E-6,8.417053748596723E-4
167,196.41338338452343,4.925861053803619E-6,8.466312359134759E-4
168,196.37818338971667,4.9385088755965165E-6,8.515697447890724E-4
169,196.3430691413265,4.910310233154969E-6,8.564800550222273E-4
170,196.30761925881518,4.93844555189146E-6,8.614185005741188E-4
171,196.2723341516802,4.910973325095736E-6,8.663294738992146E-4
172,196.2360302402491,4.927574443168768E-6,8.712570483423833E-4
173,196.19990074032657,4.915643839355354E-6,8.761726921817387E-4
174,196.1638545423003,4.920759660220103E-6,8.810934518419588E-4
175,196.1275149922333,4.965283539056518E-6,8.860587353810153E-4
176,196.09037366976472,4.937221261065289E-6,8.909959566420806E-4
177,196.0540460921783,4.904113285512958E-6,8.959000699275935E-4
178,196.01795874150565,4.883783126097304E-6,9.007838530536908E-4
179,195.98201674876273,4.783550724722641E-6,9.055674037784134E-4
180,195.94538032567448,4.816171432493361E-6,9.103835752109068E-4
181,195.90833839683728,4.806715475099234E-6,9.151902906860059E-4
182,195.87109802598513,4.884007644811963E-6,9.20074298330818E-4
183,195.8328693040244,4.96122469063426E-6,9.250355230214523E-4
184,195.79503931265705,4.953708328241395E-6,9.299892313496936E-4
185,195.75703424268542,4.948006935949991E-6,9.349372382856437E-4
186,195.71812538438667,4.959369568031156E-6,9.398966078536748E-4
187,195.6785263596639,5.0030775397639496E-6,9.448996853934387E-4
188,195.63839149341985,5.072555480478802E-6,9.499722408739176E-4
189,195.59866964183473,5.021722883589045E-6,9.549939637575066E-4
190,195.55866789669128,5.019167948505481E-6,9.600131317060121E-4
191,195.5189552751255,4.9983068660365285E-6,9.650114385720487E-4
192,195.47942834858458,5.017951019062319E-6,9.70029389591111E-4
193,195.4397296981867,5.029606964340086E-6,9.75058996555451E-4
194,195.40038098065773,4.969775032400129E-6,9.80028771587851E-4
195,195.3611067845607,4.948371301493073E-6,9.849771428893442E-4
196,195.32188445406098,4.9381146605557015E-6,9.899152575498999E-4
197,195.28223038536686,4.912798884110058E-6,9.9482805643401E-4
198,195.24270754711335,4.9081334082940785E-6,9.99736189842304E-4
199,195.20285977781884,4.887299816540718E-6,0.0010046234896588448
200,195.1635859097066,4.916406358739946E-6,0.0010095398960175848
201,195.1246189223596,4.94925813318607E-6,0.0010144891541507709
202,195.08558164867043,4.910016017078375E-6,0.0010193991701678493
203,195.04588255806547,4.924264168305652E-6,0.0010243234343361549
204,195.0060471650215,4.921743182150608E-6,0.0010292451775183054
205,194.96588165321924,4.929453485355141E-6,0.0010341746310036605
206,194.9249980810644,4.927354776184382E-6,0.0010391019857798449
207,194.88334871657565,4.9686755803395165E-6,0.0010440706613601843
208,194.841520130024,4.946397203669304E-6,0.0010490170585638536
209,194.7990652343235,4.932187929235597E-6,0.0010539492464930892
210,194.75642128476528,4.957232902764478E-6,0.0010589064793958536
211,194.71372584416426,4.989691117752371E-6,0.001063896170513606
212,194.66995105538638,4.982990945485142E-6,0.0010688791614590911
213,194.62644515593607,4.966248680374269E-6,0.0010738454101394653
214,194.58222259764648,4.941221488968653E-6,0.001078786631628434
215,194.53784003886392,4.947499932128849E-6,0.0010837341315605628
216,194.49398341403352,4.9075548595262074E-6,0.001088641686420089
217,194.44892249528948,4.9682590673244215E-6,0.0010936099454874133
218,194.4035177815085,4.947080119636617E-6,0.00109855702560705
219,194.357529558008,4.969703056681791E-6,0.0011035267286637316
220,194.3124989647248,4.963905542953718E-6,0.0011084906342066854
221,194.26754223612616,4.9637648697986E-6,0.001113454399076484
222,194.22198300860558,5.008278611258857E-6,0.0011184626776877427
223,194.17568231488752,5.040559850596822E-6,0.0011235032375383396
224,194.1306664511634,4.917179876805708E-6,0.0011284204174151452
225,194.0858814942329,4.887030875752715E-6,0.001133307448290898
226,194.04171120202608,4.817234266769601E-6,0.0011381246825576676
227,193.997182633585,4.807143391704566E-6,0.0011429318259493723
228,193.9525732751629,4.829201252464356E-6,0.0011477610272018367
229,193.90800246374715,4.82297265900535E-6,0.0011525839998608421
230,193.8635441339963,4.767071332353296E-6,0.0011573510711931955
231,193.81964507805577,4.687294037810929E-6,0.0011620383652310065
232,193.77596036390747,4.718348719510752E-6,0.0011667567139505173
233,193.73200551728974,4.772858692750513E-6,0.0011715295726432678
234,193.6874041154062,4.782366225844102E-6,0.001176311938869112
235,193.6427059708581,4.740096526567915E-6,0.0011810520353956798
236,193.59788533994293,4.755014742386305E-6,0.001185807050138066
237,193.5524312936099,4.76495403320662E-6,0.0011905720041712727
238,193.50656131476106,4.725159610030609E-6,0.0011952971637813033
239,193.45971451738106,4.742449374847098E-6,0.0012000396131561504
240,193.41293721979693,4.717716275218815E-6,0.0012047573294313692
241,193.36606102444196,4.783270559559501E-6,0.0012095405999909287
242,193.31781394192888,4.887321755958326E-6,0.001214427921746887
243,193.26958885380515,4.888851415068734E-6,0.0012193167731619557
244,193.21968936024788,4.988938656643077E-6,0.0012243057118185988
245,193.1704033623067,4.984144476350353E-6,0.0012292898562949492
246,193.1198034005421,4.99499250507789E-6,0.001234284848800027
247,193.06916360245722,4.942955784072528E-6,0.0012392278045840995
248,193.01772926463093,4.978248589442027E-6,0.0012442060531735416
249,192.96586447423712,4.998539559198355E-6,0.00124920459273274
250,192.91342745205665,4.982456452108344E-6,0.0012541870491848482
251,192.85995781068794,4.988197742191751E-6,0.00125917524692704
252,192.80511205614505,5.043864288257296E-6,0.0012642191112152972
253,192.75121146925716,5.0284628533017115E-6,0.001269247574068599
254,192.69787841615522,5.003842590903618E-6,0.0012742514166595026
255,192.64524074661387,4.958192501463472E-6,0.0012792096091609661
256,192.59255617217792,4.939304161055167E-6,0.0012841489133220212
257,192.53918657265928,4.871299905880659E-6,0.0012890202132279018
258,192.48507605829116,4.94118271367036E-6,0.0012939613959415722
259,192.43089894605484,4.906919435601126E-6,0.0012988683153771733
260,192.37612755076833,4.9301247615964755E-6,0.0013037984401387697
261,192.32090835844093,4.949219382950877E-6,0.0013087476595217205
262,192.26543096209562,4.965090242668418E-6,0.001313712749764389
263,192.21134267276213,4.890398903617331E-6,0.0013186031486680063
264,192.1580438036422,4.901568408502309E-6,0.0013235047170765085
265,192.10542929837877,4.835891147923992E-6,0.0013283406082244325
266,192.052023214307,4.8338360602536145E-6,0.0013331744442846862
267,192.0011386340158,4.7591614253646556E-6,0.0013379336057100508
268,191.95021823060247,4.781075187780715E-6,0.0013427146808978315
269,191.89936438469945,4.769931385699801E-6,0.0013474846122835313
270,191.84819292819282,4.753321519300534E-6,0.0013522379338028318
271,191.79612003554595,4.727495482508546E-6,0.0013569654292853403
272,191.7441383433845,4.689536406294731E-6,0.001361654965691635
273,191.69141877974008,4.746547545306126E-6,0.0013664015132369412
274,191.63881253009777,4.70735713822789E-6,0.001371108870375169
275,191.58680938255955,4.712161938739579E-6,0.0013758210323139087
276,191.53493872975181,4.6934903293657725E-6,0.0013805145226432744
277,191.48373042301435,4.61151697258995E-6,0.0013851260396158644
278,191.43360628680682,4.610836122123291E-6,0.0013897368757379877
279,191.383517765618,4.585422702747972E-6,0.0013943222984407356
280,191.33464182828848,4.566249678302837E-6,0.0013988885481190385
281,191.28598166984483,4.5659104989882955E-6,0.0014034544586180267
282,191.23651038441304,4.622220860010788E-6,0.0014080766794780375
283,191.1868567498165,4.660751223180827E-6,0.0014127374307012182
284,191.13659056745303,4.7066673210295484E-6,0.0014174440980222478
285,191.08582292713598,4.689765735151492E-6,0.0014221338637573993
286,191.0359173090781,4.634698000291882E-6,0.001426768561757691
287,190.9864588276208,4.607838617708756E-6,0.0014313764003753998
288,190.9361295233423,4.620081178490733E-6,0.0014359964815538904
289,190.88551766395875,4.595923650217396E-6,0.0014405924052041078
290,190.83490800970566,4.6055071640473554E-6,0.001445197912368155
291,190.78248434437776,4.5918575032814705E-6,0.0014497897698714365
292,190.72942458693305,4.598871249541451E-6,0.001454388641120978
293,190.676871501162,4.578435405919027E-6,0.001458967076526897
294,190.624931609356,4.5878262329836405E-6,0.0014635549027598807
295,190.57283994107598,4.574000197456544E-6,0.0014681289029573371
296,190.5204625681405,4.546158342123991E-6,0.001472675061299461
297,190.4667454463524,4.6108222891951045E-6,0.001477285883588656
298,190.41216260050737,4.6097299355305145E-6,0.0014818956135241865
299,190.3572117108958,4.61522308499528E-6,0.0014865108366091818
300,190.30219151867922,4.606972863772051E-6,0.0014911178094729539
301,190.24766708608777,4.640080863794647E-6,0.0014957578903367485
302,190.1930287954894,4.6026873158664815E-6,0.001500360577652615
303,190.13825527808228,4.572557622916574E-6,0.0015049331352755316
304,190.08307488482248,4.545056230176928E-6,0.0015094781915057085
305,190.02756918571455,4.553176201310689E-6,0.0015140313677070192
306,189.9715838406683,4.547624461467699E-6,0.001518578992168487
307,189.91653774491363,4.4669382120867265E-6,0.0015230459303805736
308,189.8610412608554,4.481007035968332E-6,0.001527526937416542
