#t,ESS,tempDiff,temp
0,200.00000000000065,0.0,0.0
1,199.99979999999994,4.489466175801193E-6,4.489466175801193E-6
2,199.99920194304678,4.4923678965432945E-6,8.981834072344487E-6
3,199.99820808508923,4.51254306375408E-6,1.3494377136098567E-5
4,199.99682062057462,4.4964943634153986E-6,1.7990871499513965E-5
5,199.99504267871708,4.4504932958648095E-6,2.2441364795378774E-5
6,199.99287352700642,4.4589227710261245E-6,2.69002875664049E-5
7,199.9903170387703,4.439959852743764E-6,3.134024741914866E-5
8,199.9873800954639,4.474733916815281E-6,3.581498133596394E-5
9,199.98405177981124,4.468666366740175E-6,4.0283647702704114E-5
10,199.98035268005475,4.446258227204687E-6,4.47299059299088E-5
11,199.97626633957407,4.441509578989038E-6,4.917141550889784E-5
12,199.9717927193521,4.4377795046928715E-6,5.3609195013590706E-5
13,199.96693827923414,4.415002018913271E-6,5.802419703250398E-5
14,199.96171901774395,4.480321362154125E-6,6.25045183946581E-5
15,199.95612558593584,4.47768635986453E-6,6.698220475452263E-5
16,199.95016883972409,4.443511105655395E-6,7.142571586017802E-5
17,199.94386718217194,4.4481723482762175E-6,7.587388820845424E-5
18,199.93719054770582,4.444796096237171E-6,8.031868430469142E-5
19,199.93012672731018,4.452830209631314E-6,8.477151451432273E-5
20,199.92270191064605,4.499132477627321E-6,8.927064699195005E-5
21,199.91489936125703,4.509982238821417E-6,9.378062923077146E-5
22,199.90669252864726,4.565941763946458E-6,9.834657099471792E-5
23,199.8981446454477,4.576770258168372E-6,1.0292334125288629E-4
24,199.889231140358,4.447741689616189E-6,1.0737108294250247E-4
25,199.87998329230243,4.477631041517924E-6,1.118487139840204E-4
26,199.87036772830598,4.490547799881183E-6,1.1633926178390159E-4
27,199.860358511774,4.4599936163108266E-6,1.2079925540021242E-4
28,199.84997897635134,4.4418833795122285E-6,1.2524113877972464E-4
29,199.83924867890664,4.517714574503731E-6,1.2975885335422837E-4
30,199.82814936974955,4.4844253880702936E-6,1.3424327874229867E-4
31,199.81672986180595,4.4714242821915996E-6,1.3871470302449028E-4
32,199.80495870038476,4.478295911768727E-6,1.43192998936259E-4
33,199.79283334217257,4.52059258127578E-6,1.477135915175348E-4
34,199.78039452581746,4.477518972127426E-6,1.521911104896622E-4
35,199.76766295733103,4.459631659447731E-6,1.5665074214910995E-4
36,199.75462198284123,4.410299884186832E-6,1.610610420332968E-4
37,199.7412207344101,4.33081865111214E-6,1.6539186068440892E-4
38,199.72747034404404,4.355246162243372E-6,1.6974710684665228E-4
39,199.7133821398975,4.336928343922148E-6,1.7408403519057444E-4
40,199.69890182876966,4.364662214391824E-6,1.7844869740496627E-4
41,199.6840983298139,4.319463494653589E-6,1.8276816089961986E-4
42,199.66894111658496,4.274226817259748E-6,1.870423877168796E-4
43,199.65352551326916,4.3029973785846126E-6,1.9134538509546422E-4
44,199.63777168607115,4.363588279212442E-6,1.9570897337467665E-4
45,199.62165163383656,4.318296915916003E-6,2.0002727029059267E-4
46,199.60525553409695,4.304609336543022E-6,2.043318796271357E-4
47,199.5884731499473,4.294652605987649E-6,2.0862653223312336E-4
48,199.57132281479636,4.306082874552956E-6,2.1293261510767631E-4
49,199.55389391974947,4.304585648703891E-6,2.172372007563802E-4
50,199.5361453768868,4.305625497278523E-6,2.2154282625365873E-4
51,199.5180718481332,4.255208344253505E-6,2.2579803459791224E-4
52,199.4996662127417,4.227686595896022E-6,2.3002572119380825E-4
53,199.4809568077612,4.279160471049698E-6,2.3430488166485794E-4
54,199.46196057325915,4.2640227678837335E-6,2.3856890443274168E-4
55,199.442783507376,4.316762647864611E-6,2.428856670806063E-4
56,199.4232115813801,4.358772251485707E-6,2.47244439332092E-4
57,199.40337179906635,4.368373296613189E-6,2.516128126287052E-4
58,199.38315795873967,4.368066057606567E-6,2.5598087868631175E-4
59,199.36270510572984,4.326208617265311E-6,2.6030708730357706E-4
60,199.3419036194611,4.3603276324675265E-6,2.6466741493604457E-4
61,199.32080880087022,4.3324139224044046E-6,2.6899982885844896E-4
62,199.29931807346819,4.343874233030654E-6,2.733437030914796E-4
63,199.2775994458107,4.308390661762301E-6,2.776520937532419E-4
64,199.2555112512888,4.330855017223698E-6,2.8198294877046563E-4
65,199.2331810602141,4.321450710412761E-6,2.863043994808784E-4
66,199.21037101604347,4.298451329395918E-6,2.9060285081027433E-4
67,199.1872171071723,4.244833294075959E-6,2.948476841043503E-4
68,199.16380876071497,4.307476105617292E-6,2.991551602099676E-4
69,199.14022960669683,4.277867973383379E-6,3.03433028183351E-4
70,199.11638450127583,4.22837585596135E-6,3.0766140403931235E-4
71,199.09245711479468,4.239243868216899E-6,3.1190064790752927E-4
72,199.06820668604436,4.258903227574299E-6,3.161595511351036E-4
73,199.04348570619126,4.2955168072040615E-6,3.2045506794230763E-4
74,199.01852539331347,4.327376928231717E-6,3.2478244487053935E-4
75,198.99325985226133,4.320142560155489E-6,3.2910258743069486E-4
76,198.9677214711059,4.280131898462748E-6,3.333827193291576E-4
77,198.94191693309648,4.2599269108177934E-6,3.376426462399754E-4
78,198.9159575588625,4.238065355429209E-6,3.4188071159540464E-4
79,198.88976758582402,4.240918960806822E-6,3.461216305562115E-4
80,198.86332561850756,4.215563714030053E-6,3.5033719427024154E-4
81,198.8367689130435,4.224329243944563E-6,3.545615235141861E-4
82,198.8097708128048,4.180354665023498E-6,3.5874187817920957E-4
83,198.78251402881625,4.186291206638686E-6,3.629281693858483E-4
84,198.75500862358206,4.2015686677367125E-6,3.67129738053585E-4
85,198.72731023393254,4.2333331086375736E-6,3.713630711622226E-4
86,198.69909265997822,4.259516651110604E-6,3.756225878133332E-4
87,198.6707736369386,4.273238462655688E-6,3.798958262759889E-4
88,198.6418847280371,4.23838861142563E-6,3.8413421488741456E-4
89,198.6127482137182,4.221381154709356E-6,3.883555960421239E-4
90,198.58329538151364,4.198926404674825E-6,3.9255452244679875E-4
91,198.55362717070693,4.2274409832855E-6,3.9678196343008427E-4
92,198.52363388271536,4.2314852706532074E-6,4.0101344870073746E-4
93,198.49338511787786,4.2230307904973745E-6,4.052364794912348E-4
94,198.46307962432502,4.2340361893525685E-6,4.0947051568058736E-4
95,198.43234644728454,4.2133266670534175E-6,4.136838423476408E-4
96,198.40134451914165,4.199931459127904E-6,4.178837738067687E-4
97,198.37029840256798,4.197968901783792E-6,4.2208174270855247E-4
98,198.33875003217415,4.140761563289782E-6,4.2622250427184225E-4
99,198.30703516527643,4.132086775549103E-6,4.3035459104739135E-4
100,198.27513091591504,4.146652487072794E-6,4.3450124353446414E-4
101,198.24279218905517,4.1414305086906546E-6,4.386426740431548E-4
102,198.2103591542716,4.152561385469704E-6,4.4279523542862446E-4
103,198.1775971711636,4.16876953261878E-6,4.469640049612432E-4
104,198.14450628134188,4.1349716233124614E-6,4.5109897658455566E-4
105,198.1110553877355,4.1436720032753696E-6,4.5524264858783103E-4
106,198.07726496223842,4.181859703853697E-6,4.5942450829168473E-4
107,198.04313909231982,4.180490439563318E-6,4.6360499873124804E-4
108,198.00866596232223,4.233732212575154E-6,4.678387309438232E-4
109,197.973983735599,4.210779266705834E-6,4.7204951021052904E-4
110,197.93892829120117,4.198333617501561E-6,4.762478438280306E-4
111,197.90358976561893,4.206943884650424E-6,4.8045478771268106E-4
112,197.86800033826216,4.196340870650935E-6,4.84651128583332E-4
113,197.83210386021136,4.205495514628122E-6,4.888566240979601E-4
114,197.79580964751796,4.226124810466524E-6,4.930827489084266E-4
115,197.75935812976883,4.263233975562011E-6,4.973459828839887E-4
116,197.72261469249347,4.315682688081403E-6,5.0166166557207E-4
117,197.68525686628732,4.323280276271876E-6,5.059849458483419E-4
118,197.64773783057706,4.345703023465197E-6,5.103306488718071E-4
119,197.61016968855773,4.429921506848256E-6,5.147605703786554E-4
120,197.57254735774669,4.406216236073347E-6,5.191667866147287E-4
121,197.53452109165553,4.381092548348618E-6,5.235478791630773E-4
122,197.49628216810015,4.409999912244469E-6,5.279578790753218E-4
123,197.45798470229687,4.409560802605893E-6,5.323674398779277E-4
124,197.41950103449398,4.45332007053664E-6,5.368207599484643E-4
125,197.38093257242372,4.491027974771683E-6,5.41311787923236E-4
126,197.342271059309,4.460954208580784E-6,5.457727421318169E-4
127,197.30334017918702,4.431021442739827E-6,5.502037635745566E-4
128,197.26402633782976,4.423239653324847E-6,5.546270032278815E-4
129,197.2245026888056,4.420374389049322E-6,5.590473776169309E-4
130,197.18456515866302,4.4309978560764425E-6,5.634783754730074E-4
131,197.14410822463313,4.390597925660858E-6,5.678689733986682E-4
132,197.10359929511114,4.458349273913706E-6,5.723273226725819E-4
133,197.0628984594551,4.449292965955664E-6,5.767766156385375E-4
134,197.0220608638304,4.47713223048604E-6,5.812537478690235E-4
135,196.98124776377594,4.421735861761834E-6,5.856754837307854E-4
136,196.94007829717958,4.398906105845068E-6,5.900743898366304E-4
137,196.89893728398738,4.4250520881522695E-6,5.944994419247826E-4
138,196.85719189725225,4.455946377606962E-6,5.989553883023896E-4
139,196.81517262503502,4.487721020242341E-6,6.03443109322632E-4
140,196.77300871796203,4.489492270826676E-6,6.079326015934586E-4
141,196.7308227997106,4.507170877887309E-6,6.124397724713459E-4
142,196.68861272645444,4.519804186009718E-6,6.169595766573556E-4
143,196.64580471905347,4.493406352536776E-6,6.214529830098923E-4
144,196.6029631847305,4.4739061308022576E-6,6.259268891406946E-4
145,196.5602667504692,4.450753622064391E-6,6.30377642762759E-4
146,196.5172936173428,4.461759345994508E-6,6.348394021087535E-4
147,196.47431237670148,4.462906214506634E-6,6.393023083232602E-4
148,196.43131324452926,4.472619986427281E-6,6.437749283096874E-4
149,196.3882657584878,4.45464472981136E-6,6.482295730394988E-4
150,196.34475016141897,4.480933302683459E-6,6.527105063421823E-4
151,196.3007832070787,4.428231485325024E-6,6.571387378275074E-4
152,196.2565378800332,4.46471631577235E-6,6.616034541432797E-4
153,196.21209589694695,4.480870007399247E-6,6.660843241506789E-4
154,196.16741352452098,4.441010341059292E-6,6.705253344917382E-4
155,196.12247394923094,4.4722918082596405E-6,6.749976262999979E-4
156,196.07771502760622,4.499563589231115E-6,6.79497189889229E-4
157,196.0325770342196,4.493665165050239E-6,6.839908550542792E-4
158,195.9872443502184,4.503323614923004E-6,6.884941786692023E-4
159,195.94170552322478,4.491334097149255E-6,6.929855127663515E-4
160,195.89579903442345,4.52257580227784E-6,6.975080885686293E-4
161,195.8496966146207,4.523492248532775E-6,7.020315808171621E-4
162,195.80339423952904,4.532082227704507E-6,7.065636630448666E-4
163,195.75652579652444,4.4970279660098666E-6,7.110606910108765E-4
164,195.7094422265558,4.520392454761722E-6,7.155810834656382E-4
165,195.6621304234052,4.446297339561818E-6,7.200273808052E-4
166,195.61433345124883,4.42916415805672E-6,7.244565449632568E-4
167,195.56621975681762,4.448910431924696E-6,7.289054553951815E-4
168,195.51837768712528,4.380848691423103E-6,7.332863040866046E-4
169,195.47015244637802,4.354305314952848E-6,7.376406094015574E-4
170,195.42129601295684,4.339832709431047E-6,7.419804421109885E-4
171,195.37269510019826,4.361187370621017E-6,7.463416294816095E-4
172,195.32386288126452,4.399305091521163E-6,7.507409345731306E-4
173,195.27445152580023,4.399419124239307E-6,7.5514035369737E-4
174,195.22451084113698,4.448911224486888E-6,7.595892649218569E-4
175,195.17448763042248,4.388069630451246E-6,7.639773345523082E-4
176,195.12397916937553,4.4821099775201484E-6,7.684594445298283E-4
177,195.07303977088193,4.4792215003254325E-6,7.729386660301537E-4
178,195.02199358757352,4.527222107762886E-6,7.774658881379166E-4
179,194.97104847753522,4.4725154522756776E-6,7.819384035901922E-4
180,194.91976531546865,4.5613370185791114E-6,7.864997406087713E-4
181,194.86837475507883,4.559484480299288E-6,7.910592250890706E-4
182,194.81681409687224,4.575376155194882E-6,7.956346012442656E-4
183,194.76482745364916,4.5502872681830695E-6,8.001848885124486E-4
184,194.71302415512224,4.528187566033554E-6,8.047130760784821E-4
185,194.66093986933953,4.53568270051404E-6,8.092487587789962E-4
186,194.60780368846198,4.525742477296121E-6,8.137745012562923E-4
187,194.5547011584214,4.5414883504845875E-6,8.183159896067769E-4
188,194.50109265372114,4.537119667271061E-6,8.228531092740479E-4
189,194.44707380117697,4.5254213866243075E-6,8.273785306606722E-4
190,194.39281961078936,4.556468652620459E-6,8.319349993132927E-4
191,194.33863934981326,4.576395411138667E-6,8.365113947244314E-4
192,194.28446827622432,4.553490278664056E-6,8.410648850030954E-4
193,194.23037785417353,4.496199703236255E-6,8.455610847063317E-4
194,194.17628710419498,4.5190544763492724E-6,8.500801391826809E-4
195,194.122151056506,4.512730469739481E-6,8.545928696524204E-4
196,194.06784265493386,4.529422628159772E-6,8.591222922805802E-4
197,194.01359136104014,4.475502209794159E-6,8.635977944903743E-4
198,193.95918369146676,4.4829355522295655E-6,8.680807300426039E-4
199,193.90453563147733,4.45409582873319E-6,8.72534825871337E-4
200,193.85022091561984,4.462907835890317E-6,8.769977337072274E-4
201,193.79572285940495,4.510374025682465E-6,8.815081077329099E-4
202,193.74086458031402,4.5133823648395645E-6,8.860214900977495E-4
203,193.68627155829375,4.5042549829057965E-6,8.905257450806552E-4
204,193.63147630785508,4.489348995853197E-6,8.950150940765084E-4
205,193.57708771418805,4.480368578750921E-6,8.994954626552593E-4
206,193.52261358443167,4.47592694382929E-6,9.039713895990886E-4
207,193.46802261599203,4.451098160440245E-6,9.084224877595288E-4
208,193.41292543374163,4.4564853570273225E-6,9.128789731165562E-4
209,193.35753075489185,4.450848253316475E-6,9.173298213698727E-4
210,193.3019146616516,4.460097866440777E-6,9.217899192363135E-4
211,193.2459978991666,4.417187905968488E-6,9.26207107142282E-4
212,193.18985440965622,4.330019221181848E-6,9.305371263634638E-4
213,193.13341820826628,4.316526790039462E-6,9.348536531535032E-4
214,193.0764122496994,4.306638920446207E-6,9.391602920739494E-4
215,193.0189626167569,4.288541431853361E-6,9.434488335058027E-4
216,192.9612974799942,4.299303285020092E-6,9.477481367908228E-4
217,192.90351696470296,4.3068059260508225E-6,9.520549427168737E-4
218,192.84517095608626,4.328371756122886E-6,9.563833144729966E-4
219,192.7875152916245,4.308207910946714E-6,9.606915223839432E-4
220,192.72973660876593,4.3477719350611325E-6,9.650392943190044E-4
221,192.67190045444846,4.3603137297502795E-6,9.693996080487547E-4
222,192.61368839167469,4.3430114016251534E-6,9.737426194503799E-4
223,192.5549902002002,4.38969239201659E-6,9.781323118423964E-4
224,192.4960996708349,4.371346464703033E-6,9.825036583070994E-4
225,192.4373231644727,4.368453943620535E-6,9.8687211225072E-4
226,192.3786263656697,4.367152801936653E-6,9.912392650526566E-4
227,192.32040933948136,4.341789985408243E-6,9.955810550380648E-4
228,192.2620545042169,4.355814570345706E-6,9.999368696084106E-4
229,192.20337141556556,4.3473827778571725E-6,0.0010042842523862677
230,192.14438004295062,4.380957877514592E-6,0.0010086652102637822
231,192.08480892980145,4.403529581326108E-6,0.0010130687398451084
232,192.02510918019587,4.4186805333105826E-6,0.001017487420378419
233,191.9654932211994,4.36381016895618E-6,0.001021851230547375
234,191.90526011422634,4.390642549964615E-6,0.0010262418730973397
235,191.84494473374932,4.350704292404052E-6,0.0010305925773897438
236,191.78360597596918,4.338456679151187E-6,0.0010349310340688948
237,191.72278926947914,4.4182383745751E-6,0.0010393492724434699
238,191.6621995458336,4.427135182048031E-6,0.001043776407625518
239,191.60191649703816,4.331181013106456E-6,0.0010481075886386243
240,191.54172425784978,4.297926087059451E-6,0.0010524055147256837
241,191.48057805163552,4.289245899975728E-6,0.0010566947606256594
242,191.418223357088,4.301550584329754E-6,0.0010609963112099892
243,191.3558623267556,4.29323887628616E-6,0.0010652895500862754
244,191.29325592547835,4.337610230181598E-6,0.001069627160316457
245,191.23020685664602,4.326301403448132E-6,0.0010739534617199053
246,191.16799925804034,4.316075749716671E-6,0.001078269537469622
247,191.1056527702204,4.296853092343536E-6,0.0010825663905619654
248,191.0431112227048,4.297403552802467E-6,0.0010868637941147678
249,190.9807670630505,4.313549474919945E-6,0.0010911773435896878
250,190.9186528732684,4.340323507574235E-6,0.001095517667097262
251,190.85665888330928,4.385199637149308E-6,0.0010999028667344113
252,190.79418341582806,4.396881648447743E-6,0.001104299748382859
253,190.73086543599948,4.361389505800467E-6,0.0011086611378886594
254,190.66734370601839,4.424173927208057E-6,0.0011130853118158674
255,190.60340715216108,4.472578513946441E-6,0.001117557890329814
256,190.53930039263022,4.516405955489718E-6,0.0011220742962853036
257,190.47566410669947,4.536327596044373E-6,0.001126610623881348
258,190.41211709956292,4.49083112276195E-6,0.00113110145500411
259,190.3486577022005,4.501419263497976E-6,0.0011356028742676078
260,190.28537469907442,4.476310380477678E-6,0.0011400791846480855
261,190.22136736415402,4.494563991870297E-6,0.0011445737486399557
262,190.15702835698323,4.502402046054323E-6,0.00114907615068601
263,190.09289487031103,4.4129329516958896E-6,0.0011534890836377059
264,190.02860598345927,4.434499416095434E-6,0.0011579235830538014
265,189.9642826503851,4.452136587444519E-6,0.001162375719641246
266,189.90021756050197,4.457318617136107E-6,0.001166833038258382
267,189.8367325629882,4.527193532609874E-6,0.001171360231790992
268,189.77310701157293,4.507689224692367E-6,0.0011758679210156844
269,189.70941160762933,4.494014049758138E-6,0.0011803619350654426
270,189.6457150630108,4.451608159271042E-6,0.0011848135432247137
271,189.58175341728352,4.3965146908574505E-6,0.0011892100579155712
272,189.5174005372875,4.367695148755375E-6,0.0011935777530643265
273,189.4528888764587,4.359675807967592E-6,0.001197937428872294
274,189.38818403047827,4.338120037933349E-6,0.0012022755489102274
275,189.3231090298016,4.307710948664752E-6,0.0012065832598588922
276,189.2578709504736,4.319849265118388E-6,0.0012109031091240105
277,189.1917979032371,4.355923055084644E-6,0.0012152590321790951
278,189.12581138939592,4.3775926136709335E-6,0.001219636624792766
279,189.05982321692886,4.37094127110857E-6,0.0012240075660638746
280,188.9937868822201,4.368267438730631E-6,0.0012283758335026053
281,188.92811575362472,4.383063662575387E-6,0.0012327588971651807
282,188.86215153981567,4.3066020185090955E-6,0.00123706549918369
283,188.79675394335962,4.244138419798834E-6,0.0012413096376034888
284,188.73112891137473,4.260191945537894E-6,0.0012455698295490267
285,188.6653657886312,4.2410335774771056E-6,0.0012498108631265037
286,188.5994090376368,4.160259172215612E-6,0.0012539711222987193
287,188.53435484946843,4.138995537010887E-6,0.00125811011783573
288,188.4688469987699,4.1197810220819774E-6,0.001262229898857812
289,188.40274825477044,4.103329689805734E-6,0.0012663332285476178
290,188.33653016549113,4.11191832543288E-6,0.0012704451468730507
291,188.27056214387656,4.104033969095553E-6,0.0012745491808421462
292,188.20337816589227,4.115995908627514E-6,0.0012786651767507737
293,188.1356763515512,4.138708269238546E-6,0.0012828038850200122
294,188.0689519459291,4.157459011076797E-6,0.001286961344031089
295,188.00119761828813,4.183247559005363E-6,0.0012911445915900945
296,187.93356327754563,4.086504182388486E-6,0.001295231095772483
297,187.8663444493403,4.062669311778194E-6,0.0012992937650842613
298,187.7984593231549,4.0679233173587306E-6,0.00130336168840162
299,187.73117855196224,4.0447344304698985E-6,0.00130740642283209
300,187.6638574278279,4.084568739816573E-6,0.0013114909915719066
301,187.59651436075222,4.118529627608339E-6,0.0013156095211995149
302,187.52783433232304,4.090634061329375E-6,0.0013197001552608444
303,187.4583272517378,4.082800259665399E-6,0.0013237829555205098
304,187.38853450475423,4.069149490868511E-6,0.0013278521050113783
305,187.31954371106403,4.078638882043037E-6,0.0013319307438934213
306,187.25105332647166,4.1404074815068845E-6,0.001336071151374928
307,187.1824617535447,4.15537823273203E-6,0.0013402265296076602
308,187.1139766828413,4.163053192587424E-6,0.0013443895828002476
