#t,ESS,tempDiff,temp
0,200.00000000000065,0.0,0.0
1,199.99982447522092,4.489466175801193E-6,4.489466175801193E-6
2,199.99930376475072,4.4923678965432945E-6,8.981834072344487E-6
3,199.99842722033532,4.51254306375408E-6,1.3494377136098567E-5
4,199.99721087262517,4.4964943634153986E-6,1.7990871499513965E-5
5,199.99565741671262,4.4504932958648095E-6,2.2441364795378774E-5
6,199.99375931304553,4.4589227710261245E-6,2.69002875664049E-5
7,199.9915388094585,4.439959852743764E-6,3.134024741914866E-5
8,199.9889632113094,4.474733916815281E-6,3.581498133596394E-5
9,199.98607098502129,4.468666366740175E-6,4.0283647702704114E-5
10,199.9828492587472,4.446258227204687E-6,4.47299059299088E-5
11,199.97935144054836,4.441509578989038E-6,4.917141550889784E-5
12,199.97552725093112,4.4377795046928715E-6,5.3609195013590706E-5
13,199.97139482486935,4.415002018913271E-6,5.802419703250398E-5
14,199.96692000749078,4.480321362154125E-6,6.25045183946581E-5
15,199.96210786422733,4.47768635986453E-6,6.698220475452263E-5
16,199.95699125021568,4.443511105655395E-6,7.142571586017802E-5
17,199.95155138371425,4.4481723482762175E-6,7.587388820845424E-5
18,199.94589587939197,4.444796096237171E-6,8.031868430469142E-5
19,199.93995652438764,4.452830209631314E-6,8.477151451432273E-5
20,199.9335777066116,4.499132477627321E-6,8.927064699195005E-5
21,199.92678846202207,4.509982238821417E-6,9.378062923077146E-5
22,199.91953682124517,4.565941763946458E-6,9.834657099471792E-5
23,199.9120282877585,4.576770258168372E-6,1.0292334125288629E-4
24,199.90446258873078,4.447741689616189E-6,1.0737108294250247E-4
25,199.8964002223199,4.477631041517924E-6,1.118487139840204E-4
26,199.88799504346287,4.490547799881183E-6,1.1633926178390159E-4
27,199.87941769909548,4.4599936163108266E-6,1.2079925540021242E-4
28,199.8705580964256,4.4418833795122285E-6,1.2524113877972464E-4
29,199.86119101470624,4.517714574503731E-6,1.2975885335422837E-4
30,199.85149100360067,4.4844253880702936E-6,1.3424327874229867E-4
31,199.84155001429596,4.4714242821915996E-6,1.3871470302449028E-4
32,199.83119591278873,4.478295911768727E-6,1.43192998936259E-4
33,199.82037242755888,4.52059258127578E-6,1.477135915175348E-4
34,199.80944296729422,4.477518972127426E-6,1.521911104896622E-4
35,199.79837647562806,4.459631659447731E-6,1.5665074214910995E-4
36,199.7871884863094,4.410299884186832E-6,1.610610420332968E-4
37,199.77595595054842,4.33081865111214E-6,1.6539186068440892E-4
38,199.76449074112185,4.355246162243372E-6,1.6974710684665228E-4
39,199.7527907109864,4.336928343922148E-6,1.7408403519057444E-4
40,199.74069541552774,4.364662214391824E-6,1.7844869740496627E-4
41,199.72829533547574,4.319463494653589E-6,1.8276816089961986E-4
42,199.71566269164916,4.274226817259748E-6,1.870423877168796E-4
43,199.70264021987703,4.3029973785846126E-6,1.9134538509546422E-4
44,199.68908213827643,4.363588279212442E-6,1.9570897337467665E-4
45,199.67579410076772,4.318296915916003E-6,2.0002727029059267E-4
46,199.66230871776384,4.304609336543022E-6,2.043318796271357E-4
47,199.6486779052752,4.294652605987649E-6,2.0862653223312336E-4
48,199.63473194155506,4.306082874552956E-6,2.1293261510767631E-4
49,199.62080603459222,4.304585648703891E-6,2.172372007563802E-4
50,199.60654784776904,4.305625497278523E-6,2.2154282625365873E-4
51,199.59239079050113,4.255208344253505E-6,2.2579803459791224E-4
52,199.57795274064918,4.227686595896022E-6,2.3002572119380825E-4
53,199.5631770189345,4.279160471049698E-6,2.3430488166485794E-4
54,199.54827316927057,4.2640227678837335E-6,2.3856890443274168E-4
55,199.53317567068245,4.316762647864611E-6,2.428856670806063E-4
56,199.5175192859033,4.358772251485707E-6,2.47244439332092E-4
57,199.5014966351965,4.368373296613189E-6,2.516128126287052E-4
58,199.48513492969397,4.368066057606567E-6,2.5598087868631175E-4
59,199.46867117180747,4.326208617265311E-6,2.6030708730357706E-4
60,199.4519161792272,4.3603276324675265E-6,2.6466741493604457E-4
61,199.4350472514144,4.3324139224044046E-6,2.6899982885844896E-4
62,199.41818397746516,4.343874233030654E-6,2.733437030914796E-4
63,199.40147009016778,4.308390661762301E-6,2.776520937532419E-4
64,199.38433719915705,4.330855017223698E-6,2.8198294877046563E-4
65,199.36716928842378,4.321450710412761E-6,2.863043994808784E-4
66,199.35003927974572,4.298451329395918E-6,2.9060285081027433E-4
67,199.3330716373788,4.244833294075959E-6,2.948476841043503E-4
68,199.31569111798632,4.307476105617292E-6,2.991551602099676E-4
69,199.29812159249846,4.277867973383379E-6,3.03433028183351E-4
70,199.2804468312079,4.22837585596135E-6,3.0766140403931235E-4
71,199.2626406897255,4.239243868216899E-6,3.1190064790752927E-4
72,199.2444056761419,4.258903227574299E-6,3.161595511351036E-4
73,199.22582249249413,4.2955168072040615E-6,3.2045506794230763E-4
74,199.20700269695536,4.327376928231717E-6,3.2478244487053935E-4
75,199.18827747769672,4.320142560155489E-6,3.2910258743069486E-4
76,199.16932576546583,4.280131898462748E-6,3.333827193291576E-4
77,199.15038865497047,4.2599269108177934E-6,3.376426462399754E-4
78,199.131788751691,4.238065355429209E-6,3.4188071159540464E-4
79,199.11290879844293,4.240918960806822E-6,3.461216305562115E-4
80,199.0940607058788,4.215563714030053E-6,3.5033719427024154E-4
81,199.0749170494096,4.224329243944563E-6,3.545615235141861E-4
82,199.05579796865084,4.180354665023498E-6,3.5874187817920957E-4
83,199.03658689357354,4.186291206638686E-6,3.629281693858483E-4
84,199.01720942040538,4.2015686677367125E-6,3.67129738053585E-4
85,198.99771939490003,4.2333331086375736E-6,3.713630711622226E-4
86,198.9780181810585,4.259516651110604E-6,3.756225878133332E-4
87,198.95798571342095,4.273238462655688E-6,3.798958262759889E-4
88,198.9381501785575,4.23838861142563E-6,3.8413421488741456E-4
89,198.91814954206262,4.221381154709356E-6,3.883555960421239E-4
90,198.89814614717798,4.198926404674825E-6,3.9255452244679875E-4
91,198.8778666198619,4.2274409832855E-6,3.9678196343008427E-4
92,198.8573094191911,4.2314852706532074E-6,4.0101344870073746E-4
93,198.83665871818002,4.2230307904973745E-6,4.052364794912348E-4
94,198.81555555416972,4.2340361893525685E-6,4.0947051568058736E-4
95,198.79440998186834,4.2133266670534175E-6,4.136838423476408E-4
96,198.77275992190556,4.199931459127904E-6,4.178837738067687E-4
97,198.7510368584065,4.197968901783792E-6,4.2208174270855247E-4
98,198.72919429389708,4.140761563289782E-6,4.2622250427184225E-4
99,198.70709621592283,4.132086775549103E-6,4.3035459104739135E-4
100,198.68449925645265,4.146652487072794E-6,4.3450124353446414E-4
101,198.66159043176722,4.1414305086906546E-6,4.386426740431548E-4
102,198.63859594740487,4.152561385469704E-6,4.4279523542862446E-4
103,198.61538634060543,4.16876953261878E-6,4.469640049612432E-4
104,198.59218057801124,4.1349716233124614E-6,4.5109897658455566E-4
105,198.56831001543358,4.1436720032753696E-6,4.5524264858783103E-4
106,198.54396202372064,4.181859703853697E-6,4.5942450829168473E-4
107,198.51966149867977,4.180490439563318E-6,4.6360499873124804E-4
108,198.49508307453462,4.233732212575154E-6,4.678387309438232E-4
109,198.47058074529218,4.210779266705834E-6,4.7204951021052904E-4
110,198.44656070637544,4.198333617501561E-6,4.762478438280306E-4
111,198.42230056889625,4.206943884650424E-6,4.8045478771268106E-4
112,198.3979935722674,4.196340870650935E-6,4.84651128583332E-4
113,198.37373514383407,4.205495514628122E-6,4.888566240979601E-4
114,198.34927070965438,4.226124810466524E-6,4.930827489084266E-4
115,198.3241415692176,4.263233975562011E-6,4.973459828839887E-4
116,198.29869784819542,4.315682688081403E-6,5.0166166557207E-4
117,198.27280873726937,4.323280276271876E-6,5.059849458483419E-4
118,198.24714969984322,4.345703023465197E-6,5.103306488718071E-4
119,198.2207995785144,4.429921506848256E-6,5.147605703786554E-4
120,198.19454465194502,4.406216236073347E-6,5.191667866147287E-4
121,198.16783665986526,4.381092548348618E-6,5.235478791630773E-4
122,198.14077792860698,4.409999912244469E-6,5.279578790753218E-4
123,198.11324872013222,4.409560802605893E-6,5.323674398779277E-4
124,198.08492570720946,4.45332007053664E-6,5.368207599484643E-4
125,198.05646710721652,4.491027974771683E-6,5.41311787923236E-4
126,198.02756807102134,4.460954208580784E-6,5.457727421318169E-4
127,197.99797293033984,4.431021442739827E-6,5.502037635745566E-4
128,197.96832927241178,4.423239653324847E-6,5.546270032278815E-4
129,197.93831781006773,4.420374389049322E-6,5.590473776169309E-4
130,197.90795401485332,4.4309978560764425E-6,5.634783754730074E-4
131,197.878055670099,4.390597925660858E-6,5.678689733986682E-4
132,197.84718989132372,4.458349273913706E-6,5.723273226725819E-4
133,197.8158880593898,4.449292965955664E-6,5.767766156385375E-4
134,197.78433621852977,4.47713223048604E-6,5.812537478690235E-4
135,197.7534051898533,4.421735861761834E-6,5.856754837307854E-4
136,197.72249736311133,4.398906105845068E-6,5.900743898366304E-4
137,197.69122354731405,4.4250520881522695E-6,5.944994419247826E-4
138,197.65972160306933,4.455946377606962E-6,5.989553883023896E-4
139,197.6274866421143,4.487721020242341E-6,6.03443109322632E-4
140,197.5944870598627,4.489492270826676E-6,6.079326015934586E-4
141,197.5608105781265,4.507170877887309E-6,6.124397724713459E-4
142,197.52657912908646,4.519804186009718E-6,6.169595766573556E-4
143,197.49227464882148,4.493406352536776E-6,6.214529830098923E-4
144,197.4577136798808,4.4739061308022576E-6,6.259268891406946E-4
145,197.4228820100407,4.450753622064391E-6,6.30377642762759E-4
146,197.38739095106368,4.461759345994508E-6,6.348394021087535E-4
147,197.35153487280581,4.462906214506634E-6,6.393023083232602E-4
148,197.3159032325588,4.472619986427281E-6,6.437749283096874E-4
149,197.27994889296244,4.45464472981136E-6,6.482295730394988E-4
150,197.243329430082,4.480933302683459E-6,6.527105063421823E-4
151,197.2067752890393,4.428231485325024E-6,6.571387378275074E-4
152,197.16970721169832,4.46471631577235E-6,6.616034541432797E-4
153,197.13275938308652,4.480870007399247E-6,6.660843241506789E-4
154,197.09633392608964,4.441010341059292E-6,6.705253344917382E-4
155,197.05900685504614,4.4722918082596405E-6,6.749976262999979E-4
156,197.02120740459077,4.499563589231115E-6,6.79497189889229E-4
157,196.9828360160971,4.493665165050239E-6,6.839908550542792E-4
158,196.94441257907195,4.503323614923004E-6,6.884941786692023E-4
159,196.90491211968325,4.491334097149255E-6,6.929855127663515E-4
160,196.86498628444906,4.52257580227784E-6,6.975080885686293E-4
161,196.82478979166385,4.523492248532775E-6,7.020315808171621E-4
162,196.78497395993352,4.532082227704507E-6,7.065636630448666E-4
163,196.7446750621772,4.4970279660098666E-6,7.110606910108765E-4
164,196.70396950985702,4.520392454761722E-6,7.155810834656382E-4
165,196.66341551296875,4.446297339561818E-6,7.200273808052E-4
166,196.6227846199088,4.42916415805672E-6,7.244565449632568E-4
167,196.58151390824077,4.448910431924696E-6,7.289054553951815E-4
168,196.54058819233714,4.380848691423103E-6,7.332863040866046E-4
169,196.49952281606053,4.354305314952848E-6,7.376406094015574E-4
170,196.4586557623267,4.339832709431047E-6,7.419804421109885E-4
171,196.41733581402232,4.361187370621017E-6,7.463416294816095E-4
172,196.3751891207268,4.399305091521163E-6,7.507409345731306E-4
173,196.33271820189367,4.399419124239307E-6,7.5514035369737E-4
174,196.28933081055087,4.448911224486888E-6,7.595892649218569E-4
175,196.2459405150673,4.388069630451246E-6,7.639773345523082E-4
176,196.20136459952215,4.4821099775201484E-6,7.684594445298283E-4
177,196.15659126988186,4.4792215003254325E-6,7.729386660301537E-4
178,196.11002855634564,4.527222107762886E-6,7.774658881379166E-4
179,196.0634496871206,4.4725154522756776E-6,7.819384035901922E-4
180,196.0152750364313,4.5613370185791114E-6,7.864997406087713E-4
181,195.96660617923885,4.559484480299288E-6,7.910592250890706E-4
182,195.91825856016894,4.575376155194882E-6,7.956346012442656E-4
183,195.8693234143893,4.5502872681830695E-6,8.001848885124486E-4
184,195.8201381198298,4.528187566033554E-6,8.047130760784821E-4
185,195.77012470274636,4.53568270051404E-6,8.092487587789962E-4
186,195.72058236418763,4.525742477296121E-6,8.137745012562923E-4
187,195.67021436962844,4.5414883504845875E-6,8.183159896067769E-4
188,195.61921179253346,4.537119667271061E-6,8.228531092740479E-4
189,195.56836660706583,4.5254213866243075E-6,8.273785306606722E-4
190,195.51685737725202,4.556468652620459E-6,8.319349993132927E-4
191,195.46470861933466,4.576395411138667E-6,8.365113947244314E-4
192,195.41204650175027,4.553490278664056E-6,8.410648850030954E-4
193,195.3594403325954,4.496199703236255E-6,8.455610847063317E-4
194,195.30509611815887,4.5190544763492724E-6,8.500801391826809E-4
195,195.25011842343463,4.512730469739481E-6,8.545928696524204E-4
196,195.19445401596104,4.529422628159772E-6,8.591222922805802E-4
197,195.1393364921851,4.475502209794159E-6,8.635977944903743E-4
198,195.0843192206887,4.4829355522295655E-6,8.680807300426039E-4
199,195.0293926888193,4.45409582873319E-6,8.72534825871337E-4
200,194.97363732137558,4.462907835890317E-6,8.769977337072274E-4
201,194.91776281969635,4.510374025682465E-6,8.815081077329099E-4
202,194.8609821684944,4.5133823648395645E-6,8.860214900977495E-4
203,194.80365943790062,4.5042549829057965E-6,8.905257450806552E-4
204,194.74642169990025,4.489348995853197E-6,8.950150940765084E-4
205,194.6887041751614,4.480368578750921E-6,8.994954626552593E-4
206,194.63048434435407,4.47592694382929E-6,9.039713895990886E-4
207,194.57334780476228,4.451098160440245E-6,9.084224877595288E-4
208,194.51554246812248,4.4564853570273225E-6,9.128789731165562E-4
209,194.45687128699078,4.450848253316475E-6,9.173298213698727E-4
210,194.39857764476722,4.460097866440777E-6,9.217899192363135E-4
211,194.34140741722422,4.417187905968488E-6,9.26207107142282E-4
212,194.28560774674744,4.330019221181848E-6,9.305371263634638E-4
213,194.23099693653492,4.316526790039462E-6,9.348536531535032E-4
214,194.17616639745643,4.306638920446207E-6,9.391602920739494E-4
215,194.1211570010333,4.288541431853361E-6,9.434488335058027E-4
216,194.06592365054976,4.299303285020092E-6,9.477481367908228E-4
217,194.01094345437667,4.3068059260508225E-6,9.520549427168737E-4
218,193.95545105255437,4.328371756122886E-6,9.563833144729966E-4
219,193.90093676855943,4.308207910946714E-6,9.606915223839432E-4
220,193.84439168008106,4.3477719350611325E-6,9.650392943190044E-4
221,193.78707613116296,4.3603137297502795E-6,9.693996080487547E-4
222,193.730702975512,4.3430114016251534E-6,9.737426194503799E-4
223,193.67316372737892,4.38969239201659E-6,9.781323118423964E-4
224,193.6151017471955,4.371346464703033E-6,9.825036583070994E-4
225,193.5566786556461,4.368453943620535E-6,9.8687211225072E-4
226,193.49773552615065,4.367152801936653E-6,9.912392650526566E-4
227,193.43869874889887,4.341789985408243E-6,9.955810550380648E-4
228,193.37955953131194,4.355814570345706E-6,9.999368696084106E-4
229,193.32033610835748,4.3473827778571725E-6,0.0010042842523862677
230,193.26162430095883,4.380957877514592E-6,0.0010086652102637822
231,193.20209832057193,4.403529581326108E-6,0.0010130687398451084
232,193.14320598649226,4.4186805333105826E-6,0.001017487420378419
233,193.08513661680234,4.36381016895618E-6,0.001021851230547375
234,193.02593964948068,4.390642549964615E-6,0.0010262418730973397
235,192.96673672127253,4.350704292404052E-6,0.0010305925773897438
236,192.90760893801848,4.338456679151187E-6,0.0010349310340688948
237,192.8473473502556,4.4182383745751E-6,0.0010393492724434699
238,192.78597083949592,4.427135182048031E-6,0.001043776407625518
239,192.7242872427571,4.331181013106456E-6,0.0010481075886386243
240,192.66319642888377,4.297926087059451E-6,0.0010524055147256837
241,192.60167464393336,4.289245899975728E-6,0.0010566947606256594
242,192.5386558108216,4.301550584329754E-6,0.0010609963112099892
243,192.4765034630439,4.29323887628616E-6,0.0010652895500862754
244,192.412464356826,4.337610230181598E-6,0.001069627160316457
245,192.34761676489327,4.326301403448132E-6,0.0010739534617199053
246,192.28318121626853,4.316075749716671E-6,0.001078269537469622
247,192.21798880435935,4.296853092343536E-6,0.0010825663905619654
248,192.15214028755273,4.297403552802467E-6,0.0010868637941147678
249,192.08613515601886,4.313549474919945E-6,0.0010911773435896878
250,192.01835097990218,4.340323507574235E-6,0.001095517667097262
251,191.9501574374327,4.385199637149308E-6,0.0010999028667344113
252,191.8820774486437,4.396881648447743E-6,0.001104299748382859
253,191.81455216792003,4.361389505800467E-6,0.0011086611378886594
254,191.74616682394085,4.424173927208057E-6,0.0011130853118158674
255,191.67692192460507,4.472578513946441E-6,0.001117557890329814
256,191.60632699530842,4.516405955489718E-6,0.0011220742962853036
257,191.53511359978043,4.536327596044373E-6,0.001126610623881348
258,191.46347513787993,4.49083112276195E-6,0.00113110145500411
259,191.3909060476313,4.501419263497976E-6,0.0011356028742676078
260,191.3189105317677,4.476310380477678E-6,0.0011400791846480855
261,191.24672755239718,4.494563991870297E-6,0.0011445737486399557
262,191.1729067438523,4.502402046054323E-6,0.00114907615068601
263,191.10061128349523,4.4129329516958896E-6,0.0011534890836377059
264,191.027263946818,4.434499416095434E-6,0.0011579235830538014
265,190.9527880080549,4.452136587444519E-6,0.001162375719641246
266,190.87827356186162,4.457318617136107E-6,0.001166833038258382
267,190.80169623008774,4.527193532609874E-6,0.001171360231790992
268,190.72503667178992,4.507689224692367E-6,0.0011758679210156844
269,190.64756587055902,4.494014049758138E-6,0.0011803619350654426
270,190.57086342931964,4.451608159271042E-6,0.0011848135432247137
271,190.49593202653867,4.3965146908574505E-6,0.0011892100579155712
272,190.42205201936798,4.367695148755375E-6,0.0011935777530643265
273,190.3475545450197,4.359675807967592E-6,0.001197937428872294
274,190.273323426036,4.338120037933349E-6,0.0012022755489102274
275,190.199387239201,4.307710948664752E-6,0.0012065832598588922
276,190.12514982661557,4.319849265118388E-6,0.0012109031091240105
277,190.0496384360918,4.355923055084644E-6,0.0012152590321790951
278,189.97457315716272,4.3775926136709335E-6,0.001219636624792766
279,189.90042222644283,4.37094127110857E-6,0.0012240075660638746
280,189.826919541289,4.368267438730631E-6,0.0012283758335026053
281,189.75349320938219,4.383063662575387E-6,0.0012327588971651807
282,189.6814869657457,4.3066020185090955E-6,0.00123706549918369
283,189.6096882262912,4.244138419798834E-6,0.0012413096376034888
284,189.53698109158896,4.260191945537894E-6,0.0012455698295490267
285,189.46398657988453,4.2410335774771056E-6,0.0012498108631265037
286,189.39227415872105,4.160259172215612E-6,0.0012539711222987193
287,189.32090200894262,4.138995537010887E-6,0.00125811011783573
288,189.24976453564875,4.1197810220819774E-6,0.001262229898857812
289,189.1788227645558,4.103329689805734E-6,0.0012663332285476178
290,189.1083161770457,4.11191832543288E-6,0.0012704451468730507
291,189.0378444658558,4.104033969095553E-6,0.0012745491808421462
292,188.9659591347756,4.115995908627514E-6,0.0012786651767507737
293,188.89368460489771,4.138708269238546E-6,0.0012828038850200122
294,188.8206785132184,4.157459011076797E-6,0.001286961344031089
295,188.7467791453003,4.183247559005363E-6,0.0012911445915900945
296,188.67467641992752,4.086504182388486E-6,0.001295231095772483
297,188.60292063443003,4.062669311778194E-6,0.0012992937650842613
298,188.5313797799839,4.0679233173587306E-6,0.00130336168840162
299,188.4594224723711,4.0447344304698985E-6,0.00130740642283209
300,188.38653706881232,4.084568739816573E-6,0.0013114909915719066
301,188.3133846001789,4.118529627608339E-6,0.0013156095211995149
302,188.24053661447422,4.090634061329375E-6,0.0013197001552608444
303,188.16774891618385,4.082800259665399E-6,0.0013237829555205098
304,188.0962629994874,4.069149490868511E-6,0.0013278521050113783
305,188.02458482854595,4.078638882043037E-6,0.0013319307438934213
306,187.9515272268082,4.1404074815068845E-6,0.001336071151374928
307,187.87924431211692,4.15537823273203E-6,0.0013402265296076602
308,187.80672827732073,4.163053192587424E-6,0.0013443895828002476
