#t,ESS,tempDiff,temp
0,200.00000000000065,0.0,0.0
1,199.99979999999945,5.446209021203166E-6,5.446209021203166E-6
2,199.99920358567655,5.399371216082552E-6,1.0845580237285718E-5
3,199.9982115154755,5.392892766295725E-6,1.623847300358144E-5
4,199.9968243691972,5.336665757119955E-6,2.1575138760701398E-5
5,199.99505185451105,5.316858147805702E-6,2.68919969085071E-5
6,199.99290319551284,5.267837303601928E-6,3.215983421210903E-5
7,199.99036911399702,5.257231521192104E-6,3.741706573330113E-5
8,199.9874551648078,5.26466837628659E-6,4.268173410958772E-5
9,199.984151184224,5.279097545639163E-6,4.7960831655226885E-5
10,199.98047051093928,5.196344434167388E-6,5.315717608939427E-5
11,199.97641508711519,5.246766197843704E-6,5.840394228723797E-5
12,199.97198707239937,5.265433603601599E-6,6.366937589083958E-5
13,199.96717427147286,5.274587377041339E-6,6.894396326788091E-5
14,199.96197937007634,5.245376504187264E-6,7.418933977206818E-5
15,199.95640639723123,5.275047185110423E-6,7.94643869571786E-5
16,199.95047843885243,5.26686692437524E-6,8.473125388155384E-5
17,199.94417625976362,5.2576231141589034E-6,8.998887699571274E-5
18,199.9375048102922,5.292801110202149E-6,9.528167810591488E-5
19,199.9305351090785,5.219058063913551E-6,1.0050073616982843E-4
20,199.9232421486914,5.1856858777868424E-6,1.0568642204761527E-4
21,199.91561846216393,5.149445741038201E-6,1.1083586778865347E-4
22,199.90764803645789,5.136764686067213E-6,1.1597263247472067E-4
23,199.8993253215377,5.185028480738337E-6,1.2115766095545902E-4
24,199.89070835925708,5.2207428630878915E-6,1.2637840381854692E-4
25,199.8817380885756,5.253888831087918E-6,1.3163229264963485E-4
26,199.87243741748017,5.278030582314822E-6,1.3691032323194966E-4
27,199.8627992048911,5.2764075913875024E-6,1.4218673082333716E-4
28,199.8527887804176,5.329860264221546E-6,1.4751659108755872E-4
29,199.8424741802805,5.345157753428662E-6,1.528617488409874E-4
30,199.83181664458684,5.336744554800355E-6,1.5819849339578773E-4
31,199.82086490196238,5.274721705581247E-6,1.6347321510136898E-4
32,199.80958095562286,5.266574875649234E-6,1.687397899770182E-4
33,199.79793838549432,5.269952724310388E-6,1.7400974270132859E-4
34,199.78588224788484,5.284161237427619E-6,1.792939039387562E-4
35,199.77361213490906,5.259844288048202E-6,1.845537482268044E-4
36,199.76104581142553,5.229556961325851E-6,1.8978330518813023E-4
37,199.74818630015696,5.210848979737273E-6,1.949941541678675E-4
38,199.73501912111686,5.224681386282466E-6,2.0021883555414996E-4
39,199.7215691852788,5.178180106023529E-6,2.0539701566017347E-4
40,199.70779395817954,5.228146577493658E-6,2.1062516223766713E-4
41,199.69370865438873,5.240448915551573E-6,2.158656111532187E-4
42,199.67927874298633,5.294512173975412E-6,2.211601233271941E-4
43,199.66455057430153,5.261052408011937E-6,2.2642117573520604E-4
44,199.6495191992485,5.21306938759293E-6,2.3163424512279897E-4
45,199.6341440235636,5.213551143958946E-6,2.3684779626675792E-4
46,199.61846268153474,5.157971317411848E-6,2.4200576758416978E-4
47,199.60253275725296,5.07050537606653E-6,2.470762729602363E-4
48,199.58641551938513,5.220662703747232E-6,2.522969356639836E-4
49,199.5701010502182,5.216640886504852E-6,2.575135765504884E-4
50,199.55354132513182,5.257670403439547E-6,2.62771246953928E-4
51,199.53665741183042,5.27291048017774E-6,2.6804415743410573E-4
52,199.5195902783291,5.199309947825176E-6,2.732434673819309E-4
53,199.5023472630641,5.203995513502841E-6,2.7844746289543376E-4
54,199.4849690499501,5.202686461423596E-6,2.836501493568574E-4
55,199.46745063349772,5.274200342751654E-6,2.8892434969960903E-4
56,199.4496409171108,5.268561215650595E-6,2.9419291091525965E-4
57,199.4314869964236,5.293547614475636E-6,2.994864585297353E-4
58,199.41315566282847,5.290150684593158E-6,3.0477660921432844E-4
59,199.3944946549543,5.2611509068117855E-6,3.100377601211402E-4
60,199.37568148961256,5.263464701949743E-6,3.1530122482309E-4
61,199.35655409945088,5.240667141287381E-6,3.2054189196437734E-4
62,199.3372878947904,5.316041123004803E-6,3.2585793308738213E-4
63,199.31777166088034,5.380506232419271E-6,3.3123843931980143E-4
64,199.29800336170484,5.457520259895984E-6,3.366959595796974E-4
65,199.2780909390408,5.517037734474434E-6,3.4221299731417183E-4
66,199.25803861048763,5.4963016011158025E-6,3.477092989152876E-4
67,199.23770369167727,5.409567117301523E-6,3.5311886603258915E-4
68,199.21701065667312,5.416423527972352E-6,3.585352895605615E-4
69,199.1960092499849,5.490083563399638E-6,3.640253731239611E-4
70,199.17467228474538,5.4936512491219805E-6,3.695190243730831E-4
71,199.15307494588146,5.541334526191516E-6,3.750603588992746E-4
72,199.13138916050747,5.604631064607846E-6,3.806649899638824E-4
73,199.1095196098005,5.565778353458493E-6,3.862307683173409E-4
74,199.08731084008903,5.569899996601888E-6,3.918006683139428E-4
75,199.0649342524201,5.6180212854854704E-6,3.9741868959942826E-4
76,199.04281417401924,5.61969234979235E-6,4.030383819492206E-4
77,199.02048011928034,5.652957743354431E-6,4.0869133969257505E-4
78,198.9979293833462,5.616167270533624E-6,4.143075069631087E-4
79,198.97525500121515,5.617978694025545E-6,4.199254856571342E-4
80,198.95244291788268,5.6627265960102274E-6,4.2558821225314444E-4
81,198.9293216760055,5.597379959431694E-6,4.311855922125761E-4
82,198.90581100347606,5.579100007730236E-6,4.367646922203064E-4
83,198.88212881333396,5.527357804363275E-6,4.4229205002466963E-4
84,198.85838871529478,5.477899032075398E-6,4.47769949056745E-4
85,198.8342429371518,5.468663025046342E-6,4.5323861208179135E-4
86,198.8097744001014,5.398213883069662E-6,4.58636825964861E-4
87,198.784988355213,5.444295018493387E-6,4.640811209833544E-4
88,198.7599688601144,5.464656894924345E-6,4.6954577787827875E-4
89,198.73481763334775,5.4267698316509006E-6,4.7497254770992965E-4
90,198.70956113688766,5.404944330952041E-6,4.803774920408817E-4
91,198.684084488045,5.439403752356043E-6,4.8581689579323774E-4
92,198.65789043535264,5.396147541145308E-6,4.912130433343831E-4
93,198.63173921054542,5.477221018688073E-6,4.966902643530712E-4
94,198.60541170632257,5.496600895443938E-6,5.021868652485151E-4
95,198.5786458553452,5.5331470964830055E-6,5.077200123449982E-4
96,198.55167910562918,5.48018876773336E-6,5.132002011127316E-4
97,198.5243238055267,5.459647299040037E-6,5.186598484117717E-4
98,198.49671494226226,5.48943183013793E-6,5.241492802419097E-4
99,198.4689821345494,5.499004857688119E-6,5.296482850995978E-4
100,198.44073776164154,5.487007094841762E-6,5.351352921944395E-4
101,198.4122272194135,5.436469201236711E-6,5.405717613956762E-4
102,198.38344005202208,5.491244451891531E-6,5.460630058475677E-4
103,198.3541252845644,5.439537871954514E-6,5.515025437195223E-4
104,198.3246003088985,5.426804081035963E-6,5.569293478005582E-4
105,198.29501266133886,5.541123807680389E-6,5.624704716082386E-4
106,198.26516632895058,5.4522255081265356E-6,5.679226971163652E-4
107,198.2348763599051,5.395002318428682E-6,5.733176994347939E-4
108,198.20432914958434,5.341118054358786E-6,5.786588174891527E-4
109,198.173343909601,5.255131429643674E-6,5.839139489187963E-4
110,198.14207640141396,5.315883337067011E-6,5.892298322558633E-4
111,198.1107355930827,5.263209146983494E-6,5.944930414028468E-4
112,198.07904542556105,5.325780603040628E-6,5.998188220058874E-4
113,198.04702977594357,5.315235525735663E-6,6.05134057531623E-4
114,198.01461548988445,5.232388329363178E-6,6.103664458609863E-4
115,197.98191947179825,5.178181531164171E-6,6.155446273921504E-4
116,197.9491424570581,5.1896985837412945E-6,6.207343259758916E-4
117,197.9163517340856,5.179185034589252E-6,6.259135110104809E-4
118,197.88349596361564,5.238226652607923E-6,6.311517376630887E-4
119,197.85063065679932,5.14145348160673E-6,6.362931911446955E-4
120,197.81778083387837,5.117730975655831E-6,6.414109221203512E-4
121,197.78446425986746,5.054358946618701E-6,6.4646528106697E-4
122,197.7509442027184,4.986083889071658E-6,6.514513649560417E-4
123,197.71714335510208,5.004068511740346E-6,6.56455433467782E-4
124,197.68371484128522,4.967531301955421E-6,6.614229647697373E-4
125,197.65018066731716,4.932491605535503E-6,6.663554563752728E-4
126,197.61647416441562,4.90402539810188E-6,6.712594817733747E-4
127,197.58228534783515,4.866587703754752E-6,6.761260694771294E-4
128,197.54801031508708,4.868593745071762E-6,6.809946632222012E-4
129,197.5132954093204,4.854256880223805E-6,6.85848920102425E-4
130,197.47814536908257,4.913479503552312E-6,6.907623996059773E-4
131,197.44291879105322,4.9784144792854875E-6,6.957408140852628E-4
132,197.4075228433018,4.958789308725694E-6,7.006996033939885E-4
133,197.37158245312958,4.982601215766609E-6,7.05682204609755E-4
134,197.33565727340184,4.921366398486383E-6,7.106035710082414E-4
135,197.29934002697854,4.906286228102547E-6,7.15509857236344E-4
136,197.2624987112778,4.903239386069156E-6,7.204130966224131E-4
137,197.22597052520865,4.827348386757215E-6,7.252404450091704E-4
138,197.18904168237634,4.803768583751928E-6,7.300442135929223E-4
139,197.1518072597447,4.7590705583512095E-6,7.348032841512735E-4
140,197.114453308767,4.745288806246957E-6,7.395485729575204E-4
141,197.07676201882524,4.7110618001261325E-6,7.442596347576466E-4
142,197.03863084114062,4.732863036695444E-6,7.48992497794342E-4
143,197.0002333346398,4.7029237635728884E-6,7.536954215579149E-4
144,196.9619373694878,4.721034097934707E-6,7.584164556558496E-4
145,196.92287163016758,4.711773920337403E-6,7.63128229576187E-4
146,196.88359488254767,4.749988694369854E-6,7.678782182705568E-4
147,196.8438320527053,4.7853537560855735E-6,7.726635720266425E-4
148,196.80409602170946,4.8241584479978294E-6,7.774877304746403E-4
149,196.76442001805628,4.89084204227733E-6,7.823785725169176E-4
150,196.72454952912324,4.907187828838176E-6,7.872857603457557E-4
151,196.68471566033872,4.817153128658639E-6,7.921029134744144E-4
152,196.6442831423143,4.8078221736880735E-6,7.969107356481025E-4
153,196.6036687790686,4.788615732745057E-6,8.016993513808476E-4
154,196.56265597936004,4.749813851249593E-6,8.064491652320972E-4
155,196.5213289739902,4.787317338441767E-6,8.11236482570539E-4
156,196.47974706120053,4.734725082210987E-6,8.1597120765275E-4
157,196.43805431980735,4.724206530610246E-6,8.206954141833602E-4
158,196.39612478020604,4.722010083587044E-6,8.254174242669473E-4
159,196.35397011755586,4.736629846170994E-6,8.301540541131182E-4
160,196.31153229326833,4.729000808318213E-6,8.348830549214365E-4
161,196.2685826794825,4.701569006459387E-6,8.395846239278959E-4
162,196.22525829143547,4.725686712109329E-6,8.443103106400052E-4
163,196.1822522272141,4.7837018845358645E-6,8.490940125245411E-4
164,196.13918618635125,4.775857962318803E-6,8.538698704868598E-4
165,196.0959204928855,4.749050007832608E-6,8.586189204946924E-4
166,196.05233758287238,4.7266958304909745E-6,8.633456163251834E-4
167,196.00885609123213,4.748121847027436E-6,8.680937381722109E-4
168,195.9650327591965,4.747364541878942E-6,8.728411027140898E-4
169,195.92078389980068,4.731043665518445E-6,8.775721463796083E-4
170,195.87578506335058,4.653456023681632E-6,8.8222560240329E-4
171,195.83100712161112,4.665752169719308E-6,8.868913545730093E-4
172,195.78610083741793,4.672388774592912E-6,8.915637433476022E-4
173,195.74143492466575,4.718679986393163E-6,8.962824233339953E-4
174,195.6963811106279,4.6968929544966505E-6,9.00979316288492E-4
175,195.65132107818647,4.712831055905059E-6,9.05692147344397E-4
176,195.60610285579864,4.66467833983272E-6,9.103568256842297E-4
177,195.56060922045543,4.706189967502453E-6,9.150630156517322E-4
178,195.5146827473723,4.704177789333288E-6,9.197671934410655E-4
179,195.4688506871968,4.709479847490216E-6,9.244766732885557E-4
180,195.42306268698985,4.716310912373334E-6,9.29192984200929E-4
181,195.3771534456416,4.7411037575404614E-6,9.339340879584695E-4
182,195.33126540861846,4.726476684155696E-6,9.386605646426252E-4
183,195.28495183148655,4.736186269850758E-6,9.43396750912476E-4
184,195.23833941271664,4.813349527224255E-6,9.482101004397002E-4
185,195.1914619871205,4.81511298576639E-6,9.530252134254666E-4
186,195.14506028330666,4.867786243953519E-6,9.578929996694201E-4
187,195.09931436147474,4.8799714892190005E-6,9.62772971158639E-4
188,195.0536227077724,4.8397839319391114E-6,9.676127550905781E-4
189,195.00832343131788,4.897825741628194E-6,9.725105808322063E-4
190,194.96275067009614,4.894377391311328E-6,9.774049582235178E-4
191,194.91700864483568,4.901452015430112E-6,9.82306410238948E-4
192,194.87171888343318,4.840549441172068E-6,9.8714695968012E-4
193,194.82694023219815,4.800440604485115E-6,9.919474002846051E-4
194,194.7822378176222,4.862009181616444E-6,9.968094094662215E-4
195,194.7375316125354,4.809220003615186E-6,0.0010016186294698366
196,194.69246517566836,4.746050898923066E-6,0.0010063646803687596
197,194.64696988687552,4.7421857282170674E-6,0.0010111068660969768
198,194.60119777270694,4.687700691201308E-6,0.001015794566788178
199,194.55552275147429,4.713617423681945E-6,0.00102050818421186
200,194.50923238479805,4.671069695149226E-6,0.0010251792539070093
201,194.46307569490702,4.682410726681409E-6,0.0010298616646336907
202,194.4163420804686,4.700024146732138E-6,0.001034561688780423
203,194.3693403970002,4.6780423772323435E-6,0.0010392397311576552
204,194.32231014817378,4.552424884952058E-6,0.0010437921560426072
205,194.2750130182487,4.556592807744089E-6,0.0010483487488503512
206,194.22785752229152,4.57374470769662E-6,0.001052922493558048
207,194.1809295609196,4.556774672643831E-6,0.0010574792682306918
208,194.13434076051337,4.598890775451125E-6,0.001062078159006143
209,194.08742620965,4.554285725667842E-6,0.001066632444731811
210,194.0407003024309,4.582712685275293E-6,0.0010712151574170862
211,193.99357891082485,4.509015756086174E-6,0.0010757241731731723
212,193.9465749813255,4.557653301170407E-6,0.0010802818264743427
213,193.8991038211948,4.564441550384013E-6,0.0010848462680247267
214,193.8515745474269,4.583766268456276E-6,0.001089430034293183
215,193.8029954397887,4.5050609324593015E-6,0.0010939350952256423
216,193.75444236317094,4.559902454921872E-6,0.0010984949976805642
217,193.7051544081366,4.520446490962863E-6,0.0011030154441715272
218,193.65573701296879,4.516621893833413E-6,0.0011075320660653607
219,193.6060944694799,4.4626253065866884E-6,0.0011119946913719474
220,193.55617578317683,4.523346315677578E-6,0.0011165180376876249
221,193.50579476464853,4.581424628180793E-6,0.0011210994623158056
222,193.45530635441062,4.613074363923157E-6,0.0011257125366797287
223,193.40457457364315,4.631014927915143E-6,0.001130343551607644
224,193.35366335320273,4.677076447732152E-6,0.001135020628055376
225,193.30207432012597,4.682774377292434E-6,0.0011397034024326685
226,193.2502758581302,4.647507221129938E-6,0.0011443509096537984
227,193.1981142067857,4.6835761308452075E-6,0.0011490344857846436
228,193.1455606046935,4.6845163310895024E-6,0.001153719002115733
229,193.0926551354246,4.682293856314314E-6,0.0011584012959720473
230,193.0394055969937,4.6740777721134305E-6,0.0011630753737441608
231,192.98570488581052,4.670185841000741E-6,0.0011677455595851616
232,192.93237984697893,4.6703605249659874E-6,0.0011724159201101276
233,192.87941511611976,4.697349705342192E-6,0.00117711326981547
234,192.8257914493393,4.725259996735289E-6,0.0011818385298122051
235,192.7715957022381,4.721194029136827E-6,0.001186559723841342
236,192.7176037936129,4.721050973735722E-6,0.0011912807748150776
237,192.6631121719406,4.750986700307613E-6,0.0011960317615153852
238,192.60864582145726,4.78151906893974E-6,0.0012008132805843249
239,192.55450826745022,4.830578608426517E-6,0.0012056438591927514
240,192.5007946205858,4.722469302824022E-6,0.0012103663284955754
241,192.44656226241673,4.710500333532614E-6,0.001215076828829108
242,192.39212328343493,4.712298409830948E-6,0.001219789127238939
243,192.3378964574468,4.732397287991504E-6,0.0012245215245269305
244,192.28319698695043,4.74489317569338E-6,0.001229266417702624
245,192.2286670711654,4.832076813059123E-6,0.001234098494515683
246,192.17460853322532,4.81375198967959E-6,0.0012389122465053626
247,192.120343515043,4.822413627504978E-6,0.0012437346601328675
248,192.06593797954076,4.845031003241393E-6,0.001248579691136109
249,192.01092802974568,4.8717106878298625E-6,0.0012534514018239388
250,191.95504906834435,4.9233962580934836E-6,0.0012583747980820321
251,191.8987164188534,4.894968892132853E-6,0.001263269766974165
252,191.8428937925688,4.9623694578950874E-6,0.00126823213643206
253,191.7871051055889,4.995766240994312E-6,0.0012732279026730544
254,191.73138268691295,5.004598024502146E-6,0.0012782325006975566
255,191.676074491827,4.960985377336387E-6,0.001283193486074893
256,191.6204877161226,5.050681518235424E-6,0.0012882441675931284
257,191.5648613465296,5.058374673490034E-6,0.0012933025422666184
258,191.50853053751143,5.066801078162178E-6,0.0012983693433447805
259,191.45316722239664,5.023705701024258E-6,0.0013033930490458049
260,191.39907314922922,4.97953302538582E-6,0.0013083725820711906
261,191.34536703921177,5.046300393204996E-6,0.0013134188824643956
262,191.29188604403336,5.047159191790626E-6,0.0013184660416561862
263,191.23908134708117,5.035445830669252E-6,0.0013235014874868555
264,191.18586402395457,5.0351427411507E-6,0.0013285366302280062
265,191.13220196488356,5.103228611469996E-6,0.0013336398588394763
266,191.07800856777757,5.089842822925728E-6,0.001338729701662402
267,191.02433706782872,5.1036077605554545E-6,0.0013438333094229575
268,190.96995532401004,5.057340841456182E-6,0.0013488906502644137
269,190.91492679993794,4.9695058751344435E-6,0.001353860156139548
270,190.85985916310375,5.032071825124772E-6,0.0013588922279646727
271,190.80453040960256,5.0282762330489495E-6,0.0013639205041977218
272,190.7495580643807,5.057205676011169E-6,0.0013689777098737329
273,190.69368152694815,5.078041059761954E-6,0.0013740557509334948
274,190.6378923817217,5.052060368717409E-6,0.0013791078113022121
275,190.58276262778884,5.110732988760183E-6,0.0013842185442909723
276,190.52744655619222,5.0591078748036995E-6,0.001389277652165776
277,190.4727233766587,5.027939024138955E-6,0.001394305591189915
278,190.4175055536443,5.0347800125313865E-6,0.0013993403712024464
279,190.36316003952,5.059498838353276E-6,0.0014043998700407996
280,190.3086790256088,5.012882002747915E-6,0.0014094127520435475
281,190.2549057163239,5.053798328011433E-6,0.001414466550371559
282,190.2009462904785,5.026773084128953E-6,0.001419493323455688
283,190.1463486453157,4.99954462552684E-6,0.0014244928680812148
284,190.09106187651358,4.96054296681029E-6,0.001429453411048025
285,190.03597927771122,4.954259039904961E-6,0.00143440767008793
286,189.9812919741094,5.0461151207608275E-6,0.0014394537852086909
287,189.92667123735833,5.008966318260984E-6,0.0014444627515269519
288,189.87262597259962,5.025819253086168E-6,0.0014494885707800381
289,189.81805089422963,5.011492188513404E-6,0.0014545000629685514
290,189.7636227718204,5.058515996155322E-6,0.0014595585789647068
291,189.70863057735602,5.076333877365578E-6,0.0014646349128420724
292,189.6540006697374,5.103822060503008E-6,0.0014697387349025754
293,189.60138590573493,5.112529683436453E-6,0.0014748512645860119
294,189.54872001468098,5.086607142012041E-6,0.001479937871728024
295,189.49489922211336,5.03199606436278E-6,0.0014849698677923866
296,189.43923827859555,5.007707445227253E-6,0.0014899775752376138
297,189.38147236587716,5.01320778425593E-6,0.0014949907830218696
298,189.3238433164096,5.0879446467607436E-6,0.0015000787276686304
299,189.26620318664317,5.127762940976228E-6,0.0015052064906096066
300,189.20883174195782,5.089453461154718E-6,0.0015102959440707613
301,189.1507118749274,5.081860880291586E-6,0.001515377804951053
302,189.09348084590602,5.040138107128875E-6,0.0015204179430581817
303,189.03598112957587,5.0817013790226564E-6,0.0015254996444372044
304,188.97919232884928,5.058642384230602E-6,0.0015305582868214349
305,188.92237711685723,5.085516773006381E-6,0.0015356438035944412
306,188.86564217023465,5.180348175025233E-6,0.0015408241517694665
307,188.80909847753264,5.161903881685923E-6,0.0015459860556511524
308,188.75275774461554,5.199330440529641E-6,0.001551185386091682
