#t,ESS,tempDiff,temp
0,200.00000000000065,0.0,0.0
1,199.9997897629439,7.592131674954368E-6,7.592131674954368E-6
2,199.99917511402742,7.5733485027876356E-6,1.5165480177742005E-5
3,199.99813489263926,7.711299594901162E-6,2.2876779772643166E-5
4,199.9967067484959,7.532826882594499E-6,3.0409606655237665E-5
5,199.99489841455562,7.470146692060499E-6,3.7879753347298166E-5
6,199.99266263796804,7.470324435098341E-6,4.535007778239651E-5
7,199.9900319094673,7.455165332698946E-6,5.280524311509546E-5
8,199.987063052241,7.492637900846397E-6,6.029788101594186E-5
9,199.98383444474936,7.3495438865405305E-6,6.764742490248239E-5
10,199.9802796117841,7.27537018191457E-6,7.492279508439696E-5
11,199.97653938288857,7.145411071620011E-6,8.206820615601697E-5
12,199.9725472687348,7.083294474955528E-6,8.91515006309725E-5
13,199.96824942387198,7.07254985843014E-6,9.622405048940264E-5
14,199.96368826017286,7.009247103195296E-6,1.0323329759259794E-4
15,199.95873898665428,7.074354761466314E-6,1.1030765235406425E-4
16,199.9537066327618,6.925872644363745E-6,1.17233524998428E-4
17,199.94843528497793,6.847678097509617E-6,1.2408120309593762E-4
18,199.94297139031548,6.802574413517197E-6,1.308837775094548E-4
19,199.93726509834528,6.828319568323085E-6,1.377120970777779E-4
20,199.9312431547474,6.902070199994995E-6,1.446141672777729E-4
21,199.92482828191604,6.94934409258669E-6,1.515635113703596E-4
22,199.91820797567007,6.9167850166619125E-6,1.584802963870215E-4
23,199.91125515616116,6.9495811282860655E-6,1.6542987751530755E-4
24,199.9041691831483,6.933663612737127E-6,1.7236354112804467E-4
25,199.89681415015983,6.934723229776895E-6,1.7929826435782157E-4
26,199.88929462338626,6.794789560159256E-6,1.8609305391798083E-4
27,199.88144080311736,6.812033932965043E-6,1.929050878509459E-4
28,199.87326072742835,6.809600515067544E-6,1.9971468836601342E-4
29,199.86461034673772,6.9103074226354185E-6,2.0662499578864884E-4
30,199.856008596336,6.8772415394170214E-6,2.1350223732806585E-4
31,199.84709205563297,6.81764057397035E-6,2.203198779020362E-4
32,199.83801471718115,6.8631329453314E-6,2.2718301084736762E-4
33,199.82882016109113,6.826219120855618E-6,2.3400922996822323E-4
34,199.81936557552595,6.7972412044793434E-6,2.4080647117270256E-4
35,199.80935513391407,6.998172143859617E-6,2.478046433165622E-4
36,199.79910047467177,6.942847315229303E-6,2.547474906317915E-4
37,199.78857398388118,6.971296422717888E-6,2.617187870545094E-4
38,199.77777631077487,6.9496254208771E-6,2.686684124753865E-4
39,199.76643844241858,7.104036789808782E-6,2.757724492651953E-4
40,199.7549474150874,6.985184408482222E-6,2.827576336736775E-4
41,199.74270640981828,7.091677271097934E-6,2.8984931094477547E-4
42,199.7301280347319,7.080408770748621E-6,2.969297197155241E-4
43,199.71742275581425,7.0028437652704275E-6,3.039325634807945E-4
44,199.7043798287286,7.130063925700856E-6,3.110626274064954E-4
45,199.69094839843558,7.276978107168475E-6,3.1833960551366384E-4
46,199.67723406536666,7.280964016367059E-6,3.256205695300309E-4
47,199.66298451306244,7.32672792011584E-6,3.3294729745014676E-4
48,199.64869754309288,7.2816415330731215E-6,3.402289389832199E-4
49,199.63387473836264,7.3107464644806016E-6,3.475396854477005E-4
50,199.61891110089874,7.2518631247964715E-6,3.5479154857249697E-4
51,199.60403785455176,7.1560752467661245E-6,3.619476238192631E-4
52,199.5888570273762,7.175515701725751E-6,3.6912313952098885E-4
53,199.57369252584326,7.135051719002878E-6,3.762581912399917E-4
54,199.5587509060716,7.071652085525199E-6,3.833298433255169E-4
55,199.5436615211322,7.0506921878436734E-6,3.903805355133606E-4
56,199.52861635472058,7.0346743383690595E-6,3.9741520985172966E-4
57,199.51318954329125,7.152831122115966E-6,4.0456804097384563E-4
58,199.49739845445305,7.299204652564294E-6,4.1186724562640995E-4
59,199.48126145484656,7.335615576700207E-6,4.1920286120311016E-4
60,199.46469310258698,7.393348306072845E-6,4.26596209509183E-4
61,199.44818480000728,7.432486297205071E-6,4.340286958063881E-4
62,199.4314058726016,7.495707284108577E-6,4.4152440309049663E-4
63,199.4143983655003,7.438991914287462E-6,4.489633950047841E-4
64,199.39715156963769,7.406388239236529E-6,4.563697832440207E-4
65,199.3797791887996,7.361432959939708E-6,4.637312162039604E-4
66,199.36229990114717,7.454092825030278E-6,4.7118530902899065E-4
67,199.34470580586463,7.414220583525186E-6,4.7859952961251586E-4
68,199.32701140317758,7.39290304516218E-6,4.8599243265767805E-4
69,199.30862122315168,7.49470551562173E-6,4.934871381732998E-4
70,199.28958802057326,7.5318564490767265E-6,5.010189946223765E-4
71,199.27014815644907,7.581618550943116E-6,5.086006131733196E-4
72,199.25068666654826,7.597001319154504E-6,5.161976144924742E-4
73,199.23102545405828,7.601893762613683E-6,5.237995082550879E-4
74,199.21047311148234,7.735970411551012E-6,5.31535478666639E-4
75,199.18953896631598,7.875108982272286E-6,5.394105876489112E-4
76,199.16799381225368,7.97646536159106E-6,5.473870530105023E-4
77,199.1456047405865,8.136433977518096E-6,5.555234869880204E-4
78,199.12307139086212,8.094526895950612E-6,5.63618013883971E-4
79,199.10019135279904,8.014750527270491E-6,5.716327644112415E-4
80,199.07679315865988,7.95639410771484E-6,5.795891585189564E-4
81,199.05296668233782,7.934413593228732E-6,5.87523572112185E-4
82,199.02957478422263,7.841361545330561E-6,5.953649336575156E-4
83,199.00573620870503,7.840404661452168E-6,6.032053383189678E-4
84,198.98198192947606,7.929691609725075E-6,6.111350299286928E-4
85,198.9578009937603,7.969004579358668E-6,6.191040345080515E-4
86,198.93356425502301,7.852169259557913E-6,6.269562037676094E-4
87,198.90965672046084,7.755857556084118E-6,6.347120613236935E-4
88,198.88605051192832,7.631738694429629E-6,6.423438000181231E-4
89,198.8621906464588,7.640338696872748E-6,6.499841387149959E-4
90,198.83819326713623,7.592674093447379E-6,6.575768128084433E-4
91,198.8133554367326,7.702279669408915E-6,6.652790924778522E-4
92,198.78807418075175,7.74111603636746E-6,6.730202085142196E-4
93,198.76165128067842,7.861714048139432E-6,6.808819225623591E-4
94,198.73535993356276,7.857813830564469E-6,6.887397363929236E-4
95,198.7088102117208,7.807321233094627E-6,6.965470576260183E-4
96,198.68200811402554,7.752119518725254E-6,7.042991771447436E-4
97,198.65598246691238,7.5223826511846075E-6,7.118215597959282E-4
98,198.63001555700396,7.539601200885618E-6,7.193611609968138E-4
99,198.60430474590416,7.563561087705164E-6,7.26924722084519E-4
100,198.57801214784786,7.6215931936246014E-6,7.345463152781436E-4
101,198.55116493571836,7.632408236509976E-6,7.421787235146536E-4
102,198.5249187974231,7.415593109159684E-6,7.495943166238132E-4
103,198.49839513544134,7.360879389039476E-6,7.569551960128527E-4
104,198.4712109748618,7.574755404274101E-6,7.645299514171267E-4
105,198.44408902672117,7.661434268987471E-6,7.721913856861142E-4
106,198.41617229078446,7.645761821763304E-6,7.798371475078775E-4
107,198.38842344255409,7.551343321415632E-6,7.873884908292931E-4
108,198.3606077518489,7.538543536553891E-6,7.949270343658469E-4
109,198.332960804749,7.474513285160788E-6,8.024015476510078E-4
110,198.30598098151827,7.450590888948512E-6,8.098521385399563E-4
111,198.27785182301875,7.579479291301198E-6,8.174316178312575E-4
112,198.25022271938178,7.515162282116064E-6,8.249467801133735E-4
113,198.2226631129912,7.450679464965095E-6,8.323974595783386E-4
114,198.1948986541338,7.4985965970123674E-6,8.39896056175351E-4
115,198.16711820372586,7.478328660113138E-6,8.473743848354641E-4
116,198.13909531143915,7.525226888214631E-6,8.548996117236788E-4
117,198.1108453925655,7.6021713184175315E-6,8.625017830420963E-4
118,198.08279297242817,7.537699100923873E-6,8.700394821430202E-4
119,198.0545525523893,7.53750561242274E-6,8.77576987755443E-4
120,198.02668547062,7.60466114547768E-6,8.851816489009207E-4
121,197.9983282652671,7.624854827379627E-6,8.928065037283003E-4
122,197.9694772026204,7.565990772402907E-6,9.003724945007032E-4
123,197.9401016616003,7.63791062789557E-6,9.080104051285987E-4
124,197.91063264015443,7.696632212842733E-6,9.157070373414414E-4
125,197.88034573758293,7.696551369762343E-6,9.234035887112038E-4
126,197.8492105706833,7.677996242180258E-6,9.31081584953384E-4
127,197.8177132626398,7.705601855111221E-6,9.387871868084952E-4
128,197.7872927313,7.692524042093538E-6,9.464797108505887E-4
129,197.755473942086,7.821333462956055E-6,9.543010443135448E-4
130,197.72343323393514,7.77753549019339E-6,9.620785798037381E-4
131,197.69167374570122,7.737813596108337E-6,9.698163933998464E-4
132,197.6594063107131,7.719871103662643E-6,9.775362645035091E-4
133,197.62764928029543,7.659172164519163E-6,9.851954366680282E-4
134,197.59607676596943,7.618728605565987E-6,9.928141652735941E-4
135,197.56436050374734,7.5829218099726925E-6,0.0010003970870835668
136,197.53259966909852,7.685882935381675E-6,0.0010080829700189484
137,197.5007505001486,7.5825079427102634E-6,0.0010156654779616588
138,197.46831073614456,7.604039953116801E-6,0.0010232695179147756
139,197.43625326268145,7.419964430534305E-6,0.00103068948234531
140,197.4035983109564,7.368142718924088E-6,0.001038057625064234
141,197.3715494620344,7.248367482838116E-6,0.0010453059925470722
142,197.33952058563472,7.2229401041260975E-6,0.0010525289326511983
143,197.30759957312287,7.222329968795292E-6,0.0010597512626199935
144,197.2757951074776,7.267705102238418E-6,0.0010670189677222319
145,197.24376883268476,7.2717570449135615E-6,0.0010742907247671455
146,197.2118761820945,7.197023974362178E-6,0.0010814877487415077
147,197.18002551219095,7.15623468279541E-6,0.0010886439834243032
148,197.14932295986506,7.078089114596535E-6,0.0010957220725388997
149,197.1191652537697,7.0912416535752525E-6,0.001102813314192475
150,197.0883226493578,7.055498691342859E-6,0.001109868812883818
151,197.05669807065925,7.06289465129224E-6,0.0011169317075351102
152,197.02488720717454,7.141792616493177E-6,0.0011240735001516035
153,196.99342235535937,7.1315594975492225E-6,0.0011312050596491527
154,196.96178744039634,7.175403170422937E-6,0.0011383804628195757
155,196.93102380041546,7.1030158926162834E-6,0.001145483478712192
156,196.90063148090456,7.084369559077936E-6,0.0011525678482712698
157,196.8698557440525,7.023994673350418E-6,0.0011595918429446203
158,196.838006895001,7.194875628946646E-6,0.001166786718573567
159,196.80600867735555,7.231868823998979E-6,0.001174018587397566
160,196.77412265037876,7.266719259833332E-6,0.0011812853066573991
161,196.74190075019717,7.321423615132871E-6,0.001188606730272532
162,196.70968370070068,7.328946893999837E-6,0.0011959356771665318
163,196.6770595990058,7.2926350642694196E-6,0.0012032283122308013
164,196.64402469069975,7.315679848217504E-6,0.0012105439920790189
165,196.6110670360316,7.3592085120877485E-6,0.0012179032005911067
166,196.57704654218767,7.438641069392696E-6,0.0012253418416604993
167,196.5436491941458,7.3123715282071365E-6,0.0012326542131887064
168,196.51049264548143,7.2862674151274624E-6,0.0012399404806038338
169,196.47630490006438,7.31120735447486E-6,0.0012472516879583086
170,196.44180634119252,7.254732022619518E-6,0.0012545064199809281
171,196.4069290989667,7.227180844767717E-6,0.001261733600825696
172,196.37247223402045,7.176146622056753E-6,0.0012689097474477527
173,196.33723383554934,7.275141072307475E-6,0.0012761848885200601
174,196.30113183252791,7.382423332361542E-6,0.0012835673118524217
175,196.26415961611556,7.368280913224206E-6,0.0012909355927656458
176,196.2288238314335,7.246290850140979E-6,0.0012981818836157867
177,196.1925243254297,7.27288616498765E-6,0.0013054547697807744
178,196.15589923359022,7.343837558279142E-6,0.0013127986073390536
179,196.1195434553913,7.26229121135572E-6,0.0013200608985504093
180,196.08315961076866,7.288942968276199E-6,0.0013273498415186855
181,196.044944089066,7.288885394458373E-6,0.0013346387269131438
182,196.00658747380746,7.234868521070847E-6,0.0013418735954342147
183,195.968297144442,7.22311233529682E-6,0.0013490967077695116
184,195.9300513015301,7.289825853836096E-6,0.0013563865336233476
185,195.8926125460555,7.352608804684137E-6,0.0013637391424280317
186,195.85548353218843,7.364192145404216E-6,0.0013711033345734358
187,195.81889915044806,7.330515157441524E-6,0.0013784338497308773
188,195.7827566018162,7.295444652300344E-6,0.0013857292943831776
189,195.7458139972151,7.2285664204849165E-6,0.0013929578608036625
190,195.7091083106137,7.154686445419903E-6,0.0014001125472490824
191,195.6707906651303,7.178943172353973E-6,0.0014072914904214365
192,195.63272056580087,7.18768066312991E-6,0.0014144791710845664
193,195.5935587129276,7.274203877513643E-6,0.00142175337496208
194,195.5560980147709,7.1515033813679565E-6,0.001428904878343448
195,195.5192530321383,7.16551276621385E-6,0.0014360703911096618
196,195.48285101804666,7.142632476976727E-6,0.0014432130235866385
197,195.44738858349842,7.221188193590071E-6,0.0014504342117802286
198,195.4118005883675,7.076965852528528E-6,0.0014575111776327571
199,195.37565413473592,7.149400738831136E-6,0.0014646605783715883
200,195.33967649531346,7.289130190924459E-6,0.0014719497085625127
201,195.30390203536558,7.217447054219839E-6,0.0014791671556167326
202,195.26774058727304,7.137721704211027E-6,0.0014863048773209437
203,195.23135605541827,7.1079693185353835E-6,0.001493412846639479
204,195.1948850679516,7.117015370823106E-6,0.0015005298620103021
205,195.15786181863,7.1101885296542876E-6,0.0015076400505399563
206,195.1203587677818,7.195748939275854E-6,0.0015148357994792321
207,195.08239522361933,7.1945987809533685E-6,0.0015220303982601854
208,195.0443710037844,7.114098733594535E-6,0.00152914449699378
209,195.00510026161345,7.235596767588038E-6,0.001536380093761368
210,194.96553504384187,7.129636555557383E-6,0.0015435097303169254
211,194.92777133980252,7.029047194344064E-6,0.0015505387775112695
212,194.88815430668657,7.137315348258945E-6,0.0015576760928595285
213,194.8490762008444,7.181157935393839E-6,0.0015648572507949224
214,194.80977038394946,7.105831721780698E-6,0.0015719630825167031
215,194.77258214604882,6.958550531990924E-6,0.001578921633048694
216,194.73384875817993,6.994870999683764E-6,0.0015859165040483778
217,194.69599051239018,6.8845351178936995E-6,0.0015928010391662716
218,194.65884378410433,6.874689268212411E-6,0.001599675728434484
219,194.621382663664,6.924198599382912E-6,0.001606599927033867
220,194.58432401742127,6.9370947927704415E-6,0.0016135370218266375
221,194.54754680551733,6.96986812802817E-6,0.0016205068899546656
222,194.51050212909297,6.991346353516761E-6,0.0016274982363081824
223,194.4725178135256,7.05722883305481E-6,0.0016345554651412372
224,194.43568515628516,7.091455396411254E-6,0.0016416469205376484
225,194.39815275240565,7.132906363878921E-6,0.0016487798269015272
226,194.35927258101808,7.245180396945857E-6,0.001656025007298473
227,194.319006732049,7.250413749672714E-6,0.0016632754210481457
228,194.27839516821945,7.379451586613626E-6,0.0016706548726347593
229,194.23805016832628,7.285770033644504E-6,0.001677940642668404
230,194.1976127447007,7.284152660147675E-6,0.0016852247953285516
231,194.15651053073046,7.398154148495468E-6,0.001692622949477047
232,194.11402712031796,7.415734821565876E-6,0.0017000386842986129
233,194.0707958025017,7.5153005487295534E-6,0.0017075539848473425
234,194.02874257193915,7.367029865454573E-6,0.001714921014712797
235,193.98534090842185,7.358546768728329E-6,0.0017222795614815253
236,193.9417432892783,7.3258126871936955E-6,0.001729605374168719
237,193.8988005405363,7.378016059455827E-6,0.0017369833902281747
238,193.85574931954363,7.2699535114598985E-6,0.0017442533437396347
239,193.81169295333908,7.373626894682592E-6,0.0017516269706343173
240,193.76734433286077,7.423803924581654E-6,0.001759050774558899
241,193.72292366419032,7.406543730277535E-6,0.0017664573182891766
242,193.67840273703865,7.42782373510479E-6,0.0017738851420242814
243,193.63407166723556,7.4049445663930395E-6,0.0017812900865906746
244,193.5897803648108,7.330290479986821E-6,0.0017886203770706615
245,193.545354085211,7.357896132274185E-6,0.0017959782732029357
246,193.50035679488948,7.3367851852256535E-6,0.0018033150583881613
247,193.45578080857294,7.230457661482892E-6,0.0018105455160496442
248,193.41063901872147,7.237167208493239E-6,0.0018177826832581373
249,193.3666894732594,7.263618370988545E-6,0.0018250463016291258
250,193.32173103441815,7.407445065975659E-6,0.0018324537466951015
251,193.2780997834619,7.434549434945917E-6,0.0018398882961300474
252,193.23299611588033,7.502640176257914E-6,0.0018473909363063052
253,193.1882335765117,7.564833157604357E-6,0.0018549557694639096
254,193.14218185867904,7.628995489511742E-6,0.0018625847649534214
255,193.09580415504675,7.729026778716152E-6,0.0018703137917321375
256,193.0467607103001,7.890528080951945E-6,0.0018782043198130895
257,192.99722935645403,7.873285828933165E-6,0.0018860776056420228
258,192.9485266330107,7.837425562691814E-6,0.0018939150312047145
259,192.89912944178565,7.898597980509472E-6,0.001901813629185224
260,192.85018409301946,7.749193573503392E-6,0.0019095628227587273
261,192.80215671231784,7.624634109331485E-6,0.001917187456868059
262,192.75333091826337,7.627163038151859E-6,0.0019248146199062107
263,192.7031294593608,7.619962401024224E-6,0.001932434582307235
264,192.6525511551141,7.708855308526356E-6,0.0019401434376157614
265,192.6016880272371,7.629546454986488E-6,0.0019477729840707478
266,192.549702987798,7.636007183316031E-6,0.0019554089912540637
267,192.49863791681642,7.633919904358953E-6,0.0019630429111584225
268,192.4455235217731,7.641948360919526E-6,0.001970684859519342
269,192.39267123595434,7.676467174351066E-6,0.001978361326693693
270,192.3394864787384,7.74469169228213E-6,0.001986106018385975
271,192.28717579892268,7.688040104732859E-6,0.001993794058490708
272,192.23595379693577,7.710777462521564E-6,0.0020015048359532297
273,192.18394723636345,7.775605000678906E-6,0.0020092804409539084
274,192.131772600218,7.779318422659548E-6,0.002017059759376568
275,192.07916906854663,7.825021460224404E-6,0.0020248847808367926
276,192.0268533116508,7.787399558015226E-6,0.0020326721803948077
277,191.9744766927673,7.667334424489613E-6,0.0020403395148192974
278,191.92143723605014,7.83284264090614E-6,0.0020481723574602034
279,191.86580855014344,7.918371791736745E-6,0.00205609072925194
280,191.81018757272957,7.909901292057175E-6,0.002064000630543997
281,191.75472355528072,7.816260565003465E-6,0.0020718168911090006
282,191.69974673580123,7.799928511341379E-6,0.002079616819620342
283,191.64590989551678,7.68968623497123E-6,0.002087306505855313
284,191.59110972861228,7.606618474330501E-6,0.0020949131243296437
285,191.5360281941251,7.524386628771366E-6,0.002102437510958415
286,191.48184508392853,7.4523789048008905E-6,0.002109889889863216
287,191.4285394164844,7.3323899866098216E-6,0.002117222279849826
288,191.3768549139548,7.307662394363837E-6,0.00212452994224419
289,191.3269679136461,7.151035424300231E-6,0.00213168097766849
290,191.2773133174372,7.164421201317144E-6,0.0021388453988698073
291,191.22833679870755,7.173273144475995E-6,0.002146018672014283
292,191.1783640279928,7.1816721073178524E-6,0.002153200344121601
293,191.12923597086964,7.194784353338357E-6,0.0021603951284749393
294,191.07917127737875,7.264836346051572E-6,0.002167659964820991
295,191.03010903659145,7.3062220514229685E-6,0.002174966186872414
296,190.9824614103884,7.219711295190603E-6,0.0021821858981676046
297,190.93440518669638,7.18263287010491E-6,0.0021893685310377096
298,190.88706212018482,7.155897478159283E-6,0.0021965244285158687
299,190.83922036122289,7.227829961483692E-6,0.002203752258477352
300,190.79084526419064,7.199986689572946E-6,0.002210952245166925
301,190.74064384065653,7.219828141647143E-6,0.002218172073308572
302,190.68902716827574,7.25806486186884E-6,0.002225430138170441
303,190.6384294106114,7.236784518609693E-6,0.0022326669226890505
304,190.58749282549473,7.202837873865348E-6,0.002239869760562916
305,190.53710213081806,7.201607870042933E-6,0.002247071368432959
306,190.485526054326,7.20723585812865E-6,0.0022542786042910874
307,190.43236251839184,7.284441688474166E-6,0.0022615630459795616
308,190.38089722066954,7.146654740057709E-6,0.0022687097007196193
