#t,ESS,tempDiff,temp
0,200.00000000000065,0.0,0.0
1,199.9997999999999,8.967698245494829E-6,8.967698245494829E-6
2,199.99921017762864,9.005402370443919E-6,1.797310061593875E-5
3,199.99823367411773,8.978261125311613E-6,2.6951361741250364E-5
4,199.99687369052575,9.094132596826124E-6,3.6045494338076487E-5
5,199.99515384854067,9.09964694678839E-6,4.514514128486487E-5
6,199.99307286503955,9.152410923059048E-6,5.429755220792392E-5
7,199.99062906944374,9.081852577795569E-6,6.337940478571949E-5
8,199.98783746185447,9.156190023698103E-6,7.253559480941759E-5
9,199.98467806326875,8.933435523922313E-6,8.14690303333399E-5
10,199.98117367829417,8.850498221610445E-6,9.031952855495035E-5
11,199.9773591186341,8.71760255525486E-6,9.90371311102052E-5
12,199.97319239926574,8.665945282665305E-6,1.0770307639287051E-4
13,199.96868555003005,8.741231413331312E-6,1.1644430780620183E-4
14,199.96382190713436,8.675836188389793E-6,1.2512014399459164E-4
15,199.95861603459778,8.646526325400142E-6,1.3376667031999177E-4
16,199.95309978918962,8.742744122214144E-6,1.4250941444220592E-4
17,199.94728911248768,8.717039128854394E-6,1.5122645357106031E-4
18,199.9411763735674,8.52972416991356E-6,1.5975617774097387E-4
19,199.9347122124297,8.45610233667615E-6,1.6821228007765003E-4
20,199.92786223541304,8.657981705187887E-6,1.7687026178283793E-4
21,199.9207267539232,8.449067175464935E-6,1.8531932895830285E-4
22,199.91342227958242,8.822275477743903E-6,1.9414160443604676E-4
23,199.90585228020512,8.768327378671764E-6,2.0290993181471852E-4
24,199.89808036838446,8.855680349621667E-6,2.1176561216434018E-4
25,199.8899665635151,8.923634223466794E-6,2.2068924638780698E-4
26,199.88161838675254,8.75882808217484E-6,2.2944807446998182E-4
27,199.87289565806122,8.683051797695153E-6,2.3813112626767697E-4
28,199.86393254906466,8.804461948044344E-6,2.469355882157213E-4
29,199.8547521360343,9.084750591490156E-6,2.5602033880721143E-4
30,199.84544317120398,9.025165561585875E-6,2.650455043687973E-4
31,199.8358370255963,9.058327839975123E-6,2.741038322087724E-4
32,199.82613020082658,9.005089134987234E-6,2.8310892134375965E-4
33,199.81628719544,9.05880740397025E-6,2.921677287477299E-4
34,199.80616009234922,8.90975725799591E-6,3.010774860057258E-4
35,199.7957097065047,9.100645256996E-6,3.101781312627218E-4
36,199.78488147456883,9.080601944721637E-6,3.1925873320744343E-4
37,199.77402966271697,8.778440547681214E-6,3.2803717375512464E-4
38,199.76311117261383,8.913887772894737E-6,3.369510615280194E-4
39,199.75191709920293,8.986766098253742E-6,3.459378276262731E-4
40,199.74038794749055,8.70049205565787E-6,3.54638319681931E-4
41,199.72873013848135,8.660451637926253E-6,3.6329877131985723E-4
42,199.71693054511454,8.71375801371035E-6,3.7201252933356755E-4
43,199.70475377548868,8.49162851797914E-6,3.805041578515467E-4
44,199.69229468642783,8.347367785999077E-6,3.888515256375458E-4
45,199.67942671836238,8.289185541585527E-6,3.9714071117913136E-4
46,199.66630294612258,8.254543741454274E-6,4.0539525492058563E-4
47,199.65286963212822,8.151687129497605E-6,4.135469420500832E-4
48,199.63916292049635,8.283048703866917E-6,4.2182999075395016E-4
49,199.62521525507975,8.261506598826312E-6,4.300914973527765E-4
50,199.6110216988993,8.340401829074075E-6,4.384318991818506E-4
51,199.59659608849003,8.214452163734666E-6,4.4664635134558525E-4
52,199.58221203444373,8.15908131227793E-6,4.5480543265786317E-4
53,199.56747973512628,8.130627157051584E-6,4.6293605981491474E-4
54,199.5527195158639,8.328251589167035E-6,4.7126431140408177E-4
55,199.5376555575455,8.306172199733474E-6,4.795704836038152E-4
56,199.52236024626418,8.300090866845295E-6,4.878705744706605E-4
57,199.50664437361092,8.552167298999034E-6,4.964227417696595E-4
58,199.49051397413274,8.502270229091475E-6,5.04925011998751E-4
59,199.47422071995302,8.611897533625815E-6,5.135369095323768E-4
60,199.45792641562525,8.577045622791758E-6,5.221139551551685E-4
61,199.44145015844072,8.410161399480231E-6,5.305241165546487E-4
62,199.42484775553123,8.513102980501139E-6,5.390372195351498E-4
63,199.40791228780324,8.469842892266299E-6,5.475070624274161E-4
64,199.39078687728784,8.437208611469085E-6,5.559442710388852E-4
65,199.37384897921797,8.453260909562818E-6,5.64397531948448E-4
66,199.35648301537663,8.607754516744848E-6,5.730052864651928E-4
67,199.338949644798,8.564465161878735E-6,5.815697516270716E-4
68,199.32082068237085,8.39205075098783E-6,5.899618023780594E-4
69,199.30304020992455,8.525466292606764E-6,5.984872686706661E-4
70,199.2851352170736,8.485156369593109E-6,6.069724250402592E-4
71,199.26733133919927,8.605732762525826E-6,6.15578157802785E-4
72,199.24944943543292,8.690043934960204E-6,6.242682017377452E-4
73,199.2316236577445,8.874640749353556E-6,6.331428424870987E-4
74,199.21370801900386,8.948104829993696E-6,6.420909473170924E-4
75,199.19589759339763,8.822731319203806E-6,6.509136786362962E-4
76,199.17791278006246,8.842791668494689E-6,6.597564703047908E-4
77,199.15959356975668,8.836331707151955E-6,6.685928020119428E-4
78,199.14051821824233,8.820172276603902E-6,6.774129742885467E-4
79,199.12189690162865,8.57858120985786E-6,6.859915554984046E-4
80,199.10263210484993,8.598044191843196E-6,6.945895996902478E-4
81,199.08343899056547,8.505349063298906E-6,7.030949487535467E-4
82,199.06413299897673,8.53060450567489E-6,7.116255532592215E-4
83,199.044850372292,8.501775711665172E-6,7.201273289708868E-4
84,199.02466733907644,8.56429604993091E-6,7.286916250208177E-4
85,199.00466126399905,8.330021941834949E-6,7.370216469626526E-4
86,198.9844868147386,8.336474052869863E-6,7.453581210155225E-4
87,198.96395463113763,8.252448981131E-6,7.536105699966534E-4
88,198.94311275578394,8.279732304050034E-6,7.618903023007034E-4
89,198.9224098037289,8.19014794050318E-6,7.700804502412066E-4
90,198.90139938269485,8.277371252820912E-6,7.783578214940276E-4
91,198.88058084618916,8.252688859142485E-6,7.866105103531701E-4
92,198.85950179879524,8.510073897465075E-6,7.951205842506351E-4
93,198.83874536711267,8.509742070325638E-6,8.036303263209608E-4
94,198.8180592335574,8.471949552262093E-6,8.121022758732229E-4
95,198.79767679744123,8.695937170711129E-6,8.20798213043934E-4
96,198.77682208054702,8.696942077903627E-6,8.294951551218377E-4
97,198.75566189895633,8.585738165783291E-6,8.380808932876209E-4
98,198.73424561227796,8.800553204627688E-6,8.468814464922486E-4
99,198.71259015755524,8.726359057759529E-6,8.556078055500082E-4
100,198.69094248762642,8.647069006531543E-6,8.642548745565398E-4
101,198.6693672532182,8.733224640841528E-6,8.729880991973813E-4
102,198.64780945308257,8.38660423940689E-6,8.813747034367882E-4
103,198.62592483571152,8.422868006062827E-6,8.89797571442851E-4
104,198.60458426782841,8.366784373586833E-6,8.981643558164379E-4
105,198.58377398629204,8.418502446549307E-6,9.065828582629871E-4
106,198.56320661433216,8.389057274938082E-6,9.149719155379252E-4
107,198.5430308600124,8.506962739348369E-6,9.234788782772735E-4
108,198.52293951506627,8.486075345147815E-6,9.319649536224213E-4
109,198.5022998019201,8.570690222758547E-6,9.405356438451799E-4
110,198.4817595208818,8.432067049787106E-6,9.48967710894967E-4
111,198.46074860933987,8.290646514631415E-6,9.572583574095984E-4
112,198.43998388583418,8.406623047569165E-6,9.656649804571676E-4
113,198.41912062635484,8.353375393815001E-6,9.740183558509826E-4
114,198.39790121747168,8.345929267473538E-6,9.82364285118456E-4
115,198.3766820670612,8.214185323462601E-6,9.905784704419187E-4
116,198.35540841810462,8.251496311385027E-6,9.988299667533036E-4
117,198.3342165440659,8.209156989372962E-6,0.0010070391237426766
118,198.31233786222168,8.182507845675839E-6,0.0010152216315883525
119,198.29042887161538,8.335181534635798E-6,0.0010235568131229883
120,198.268464610087,8.36328487047937E-6,0.0010319200979934677
121,198.2468462887112,8.395223882010085E-6,0.0010403153218754779
122,198.2258848820974,8.54909342492747E-6,0.0010488644153004054
123,198.20390794409178,8.4138246536584E-6,0.0010572782399540638
124,198.18123129964417,8.509118609247311E-6,0.001065787358563311
125,198.1595783114499,8.312852506071622E-6,0.0010741002110693828
126,198.1379857084581,8.130175666461907E-6,0.0010822303867358447
127,198.1173341669002,8.073769988140241E-6,0.001090304156723985
128,198.0962796693569,8.183725860791387E-6,0.0010984878825847763
129,198.07474872688496,8.08765159605278E-6,0.0011065755341808292
130,198.05293175540336,8.152155347507421E-6,0.0011147276895283366
131,198.0312899766842,8.178184508696907E-6,0.0011229058740370335
132,198.00932315607488,8.387324357508788E-6,0.0011312931983945423
133,197.98773199618313,8.443334380938346E-6,0.0011397365327754808
134,197.96575183994324,8.261337873814187E-6,0.001147997870649295
135,197.94350320586364,8.132021849543357E-6,0.0011561298924988384
136,197.92082542075892,8.159078634758152E-6,0.0011642889711335966
137,197.89815144885347,8.050515237044023E-6,0.0011723394863706407
138,197.8751651864678,8.00767500820426E-6,0.001180347161378845
139,197.85229191960585,7.941293011344738E-6,0.0011882884543901898
140,197.8296093299843,8.081206635146588E-6,0.0011963696610253363
141,197.8073554253856,8.039306071675571E-6,0.001204408967097012
142,197.7847103259912,8.140362923056758E-6,0.0012125493300200688
143,197.76153000640247,8.188553545341392E-6,0.0012207378835654102
144,197.73777526266875,8.154618234910204E-6,0.0012288925018003204
145,197.71379436934396,8.253432564922533E-6,0.001237145934365243
146,197.68948137623883,8.208486909350275E-6,0.0012453544212745933
147,197.66521623908292,8.137251123062376E-6,0.0012534916723976556
148,197.6408147751388,7.827235005713704E-6,0.0012613189074033692
149,197.6158866857076,7.611926973735959E-6,0.001268930834377105
150,197.5901968719043,7.510736530235073E-6,0.0012764415709073402
151,197.56440004867628,7.579129358194066E-6,0.0012840207002655342
152,197.53880703725818,7.670587040095235E-6,0.0012916912873056296
153,197.51320478712256,7.621436575228283E-6,0.0012993127238808578
154,197.48755786540022,7.5194029454560836E-6,0.001306832126826314
155,197.46143336061482,7.538950809133935E-6,0.001314371077635448
156,197.4350510604498,7.73093526337994E-6,0.001322102012898828
157,197.4082254059047,7.63908695837376E-6,0.0013297410998572017
158,197.38128171944444,7.827443009693889E-6,0.0013375685428668955
159,197.35444132158062,7.968743245253067E-6,0.0013455372861121485
160,197.32673046745742,8.091639995902932E-6,0.0013536289261080513
161,197.29892369543708,8.069711832660248E-6,0.0013616986379407115
162,197.27135157224143,8.124846362727121E-6,0.0013698234843034385
163,197.24394398268527,8.166665148754405E-6,0.001377990149452193
164,197.21681606099114,8.280359031399707E-6,0.0013862705084835927
165,197.18930349467692,8.460442552689358E-6,0.0013947309510362821
166,197.1617132213573,8.302092241353928E-6,0.001403033043277636
167,197.13446902795468,8.321301693702147E-6,0.001411354344971338
168,197.10616581246686,8.24764435244831E-6,0.0014196019893237862
169,197.07802410827122,8.074007716505074E-6,0.0014276759970402913
170,197.04940930227053,8.09034024723777E-6,0.001435766337287529
171,197.0209751133051,8.002476650874517E-6,0.0014437688139384037
172,196.99273897549693,8.015626755309538E-6,0.001451784440693713
173,196.9644887291044,7.85379286725332E-6,0.0014596382335609664
174,196.93736130946752,7.826811518912339E-6,0.0014674650450798787
175,196.91064272895707,7.777462759121757E-6,0.0014752425078390003
176,196.88478567977822,7.969130429810974E-6,0.0014832116382688114
177,196.85837746141829,7.73922183170933E-6,0.0014909508601005208
178,196.83214067245004,7.5936569370928354E-6,0.0014985445170376136
179,196.80560689039515,7.730674576509578E-6,0.001506275191614123
180,196.7797729264428,7.769182975264804E-6,0.001514044374589388
181,196.7535778482707,7.729677293909159E-6,0.0015217740518832972
182,196.72727633815853,7.779212501152615E-6,0.0015295532643844498
183,196.7012176334957,7.701043125516902E-6,0.0015372543075099668
184,196.6751459987969,7.82133762610578E-6,0.0015450756451360725
185,196.6479589081046,7.673571571351597E-6,0.0015527492167074241
186,196.6205095270087,7.825985922022063E-6,0.0015605752026294462
187,196.59258577653708,7.726425551047343E-6,0.0015683016281804935
188,196.56400459949907,7.81393583270098E-6,0.0015761155640131945
189,196.53449047249867,7.74317924761089E-6,0.0015838587432608054
190,196.50434744751973,7.62765422917217E-6,0.0015914863974899776
191,196.47395376265467,7.540818677786401E-6,0.001599027216167764
192,196.44407032768123,7.644143398059406E-6,0.0016066713595658236
193,196.4138578005979,7.57933455087306E-6,0.0016142506941166966
194,196.3830782275123,7.441479363068314E-6,0.001621692173479765
195,196.35190712450714,7.522634358213087E-6,0.001629214807837978
196,196.32149992111516,7.5336695888725945E-6,0.0016367484774268506
197,196.29044723757562,7.528988224937887E-6,0.0016442774656517884
198,196.25992490128857,7.3819759946584145E-6,0.0016516594416464468
199,196.22900831315988,7.257218660785435E-6,0.0016589166603072324
200,196.19798288558425,7.315205319251644E-6,0.001666231865626484
201,196.166302888666,7.319464263684995E-6,0.001673551329890169
202,196.1355189582994,7.285162157625524E-6,0.0016808364920477944
203,196.10590047300963,7.258086722318018E-6,0.0016880945787701124
204,196.07612030479154,7.164709285790333E-6,0.0016952592880559027
205,196.04668645937005,7.094924820213405E-6,0.0017023542128761161
206,196.01772847726804,7.10921248578934E-6,0.0017094634253619055
207,195.98873592104826,7.0797079549476325E-6,0.001716543133316853
208,195.95968163670764,7.192493705534644E-6,0.0017237356270223877
209,195.92962499533866,7.245577752978988E-6,0.0017309812047753667
210,195.89924305519386,7.381924161991208E-6,0.001738363128937358
211,195.86764657110493,7.600806942592118E-6,0.00174596393587995
212,195.83561428434092,7.5749712365905435E-6,0.0017535389071165405
213,195.80372851669352,7.610230508326312E-6,0.0017611491376248668
214,195.77183821653134,7.549021398763656E-6,0.0017686981590236306
215,195.7407113792585,7.678028483200946E-6,0.0017763761875068315
216,195.70889999409914,7.799730973486328E-6,0.0017841759184803179
217,195.67774961855545,7.70547639844774E-6,0.0017918813948787657
218,195.64720160058548,7.73945022527863E-6,0.0017996208451040443
219,195.61654824476219,7.787612019314187E-6,0.0018074084571233584
220,195.5869469312521,7.804880835564352E-6,0.0018152133379589228
221,195.55715666783613,7.883754472118118E-6,0.001823097092431041
222,195.5272802239714,7.90882683003917E-6,0.0018310059192610801
223,195.4973375630418,7.960085570971697E-6,0.001838966004832052
224,195.46896290688468,7.935516557177498E-6,0.0018469015213892295
225,195.44123636169505,8.092333265541135E-6,0.0018549938546547707
226,195.41287532217817,8.096511888403271E-6,0.0018630903665431738
227,195.3848401760961,8.056822113967593E-6,0.0018711471886571414
228,195.3561037658989,8.051374030421115E-6,0.0018791985626875625
229,195.3275951778092,8.10282068879427E-6,0.0018873013833763568
230,195.29808440745714,8.260091893294427E-6,0.0018955614752696511
231,195.26856126706696,8.258349007832747E-6,0.001903819824277484
232,195.23994363704122,8.187924831017772E-6,0.0019120077491085016
233,195.21180274451,8.157106566829683E-6,0.0019201648556753314
234,195.18492949275836,8.028275270064892E-6,0.0019281931309453964
235,195.15792202792213,8.093756331109187E-6,0.0019362868872765055
236,195.13082878092501,8.181124204340647E-6,0.0019444680114808462
237,195.10441715703263,8.217657956180652E-6,0.0019526856694370269
238,195.07741338816862,8.07762783605055E-6,0.0019607632972730776
239,195.05026064652813,8.051019191878882E-6,0.0019688143164649564
240,195.0222110214885,7.924864000436548E-6,0.001976739180465393
241,194.99618111943204,7.673747508752228E-6,0.001984412927974145
242,194.96988113443453,7.629452027595384E-6,0.0019920423800017404
243,194.94287104304715,7.498296889533169E-6,0.0019995406768912737
244,194.91525137464146,7.538708195135078E-6,0.0020070793850864087
245,194.88941174580583,7.663428308106424E-6,0.0020147428133945153
246,194.86389116927563,7.727195175168242E-6,0.0020224700085696833
247,194.83740730742684,7.810596695596174E-6,0.0020302806052652795
248,194.81221027426358,7.784115536477533E-6,0.002038064720801757
249,194.78721613613772,7.762330703681875E-6,0.002045827051505439
250,194.76223757474273,7.686817924508482E-6,0.002053513869429947
251,194.73677750620422,7.789775149842106E-6,0.0020613036445797893
252,194.7094289202988,7.824169473693988E-6,0.002069127814053483
253,194.68110661152687,7.749954599243484E-6,0.0020768777686527265
254,194.65349716542,8.042064448030792E-6,0.0020849198331007574
255,194.6257674466754,7.971497275446204E-6,0.0020928913303762038
256,194.59784662673815,8.087725304208902E-6,0.0021009790556804128
257,194.57010437956038,8.132165046379391E-6,0.002109111220726792
258,194.5430941049699,8.185471272873182E-6,0.0021172966919996653
259,194.51515134916778,8.208128650958756E-6,0.002125504820650624
260,194.48729543118657,8.28252054237211E-6,0.0021337873411929964
261,194.4613306692785,8.083464964518153E-6,0.0021418708061575146
262,194.4362896608871,7.921664881653036E-6,0.0021497924710391675
263,194.41202964496802,7.913264275335802E-6,0.0021577057353145035
264,194.38832370092575,7.775768259171904E-6,0.0021654815035736753
265,194.36426905118304,7.800260786154146E-6,0.0021732817643598293
266,194.34038348520065,7.803423801612056E-6,0.0021810851881614414
267,194.3165659582778,7.817773047274916E-6,0.0021889029612087163
268,194.2917081848411,7.79655480534109E-6,0.0021966995160140573
269,194.2655015581182,7.933830362604815E-6,0.0022046333463766623
270,194.24070631257186,8.08886636687816E-6,0.0022127222127435405
271,194.21501131531744,8.139349892173626E-6,0.0022208615626357142
272,194.18996771530095,7.91946233631323E-6,0.0022287810249720275
273,194.16519030247093,7.81119632925914E-6,0.0022365922213012867
274,194.1411952128999,7.664040888505504E-6,0.002244256262189792
275,194.11749713304073,7.706059800452337E-6,0.0022519623219902445
276,194.09221704817813,7.50950085739674E-6,0.0022594718228476415
277,194.0664663580052,7.437723966416518E-6,0.002266909546814058
278,194.04122964947308,7.562298776193524E-6,0.0022744718455902516
279,194.01590399826202,7.59467589328038E-6,0.002282066521483532
280,193.99049402464613,7.724251107815923E-6,0.0022897907725913475
281,193.96534503454365,7.628486517433708E-6,0.002297419259108781
282,193.93976734709403,7.575576840835461E-6,0.0023049948359496167
283,193.9142088478882,7.554688389983055E-6,0.0023125495243395996
284,193.8883122663921,7.58135163451669E-6,0.0023201308759741163
285,193.8620466292549,7.418627642798935E-6,0.002327549503616915
286,193.83478216893508,7.386388659966721E-6,0.002334935892276882
287,193.8086022209644,7.404022838545486E-6,0.0023423399151154276
288,193.78302035195247,7.408625966302414E-6,0.00234974854108173
289,193.75731590674286,7.420894962205285E-6,0.002357169436043935
290,193.73168406381208,7.35385013268283E-6,0.002364523286176618
291,193.7061492576375,7.375346997324442E-6,0.0023718986331739424
292,193.67903973408207,7.347739705912809E-6,0.0023792463728798553
293,193.65276370622703,7.427319920932998E-6,0.0023866736928007883
294,193.62550047305982,7.4749223719660726E-6,0.0023941486151727543
295,193.5985588095692,7.595006171664071E-6,0.002401743621344418
296,193.57123593021035,7.652722776020364E-6,0.0024093963441204386
297,193.5430765253257,7.480790032341635E-6,0.00241687713415278
298,193.5140417143212,7.445187900406108E-6,0.0024243223220531862
299,193.4844861364538,7.240459361425809E-6,0.0024315627814146122
300,193.4552634555929,7.468875779235538E-6,0.002439031657193848
301,193.4266121675013,7.4198820671009834E-6,0.002446451539260949
302,193.3972183134361,7.394126382400759E-6,0.0024538456656433495
303,193.36780548512513,7.417689879911197E-6,0.0024612633555232606
304,193.338139819489,7.48433313687066E-6,0.0024687476886601314
305,193.3081803419045,7.523951247928884E-6,0.00247627163990806
306,193.27879827006723,7.5029425438631965E-6,0.0024837745824519233
307,193.2486605347859,7.394894533010314E-6,0.0024911694769849334
308,193.21875587951533,7.621327919816817E-6,0.0024987908049047504
