#t,ESS,tempDiff,temp
0,200.00000000000065,0.0,0.0
1,199.99975412242804,8.967698245494829E-6,8.967698245494829E-6
2,199.99901384393473,9.005402370443919E-6,1.797310061593875E-5
3,199.99778092113257,8.978261125311613E-6,2.6951361741250364E-5
4,199.99601209457194,9.094132596826124E-6,3.6045494338076487E-5
5,199.9937665413713,9.09964694678839E-6,4.514514128486487E-5
6,199.99100269124335,9.152410923059048E-6,5.429755220792392E-5
7,199.98783799911783,9.081852577795569E-6,6.337940478571949E-5
8,199.98418982244738,9.156190023698103E-6,7.253559480941759E-5
9,199.98027252889204,8.933435523922313E-6,8.14690303333399E-5
10,199.97604204130965,8.850498221610445E-6,9.031952855495035E-5
11,199.97172315819103,8.71760255525486E-6,9.90371311102052E-5
12,199.96693832755946,8.665945282665305E-6,1.0770307639287051E-4
13,199.96175968937837,8.741231413331312E-6,1.1644430780620183E-4
14,199.95615827181604,8.675836188389793E-6,1.2512014399459164E-4
15,199.94998839528287,8.646526325400142E-6,1.3376667031999177E-4
16,199.94327624231252,8.742744122214144E-6,1.4250941444220592E-4
17,199.936139479098,8.717039128854394E-6,1.5122645357106031E-4
18,199.92874916196786,8.52972416991356E-6,1.5975617774097387E-4
19,199.9211444443854,8.45610233667615E-6,1.6821228007765003E-4
20,199.91302781269735,8.657981705187887E-6,1.7687026178283793E-4
21,199.90485623553167,8.449067175464935E-6,1.8531932895830285E-4
22,199.89608827916342,8.822275477743903E-6,1.9414160443604676E-4
23,199.8869678833841,8.768327378671764E-6,2.0290993181471852E-4
24,199.87727574239236,8.855680349621667E-6,2.1176561216434018E-4
25,199.86727694764974,8.923634223466794E-6,2.2068924638780698E-4
26,199.85707006368236,8.75882808217484E-6,2.2944807446998182E-4
27,199.84692172646163,8.683051797695153E-6,2.3813112626767697E-4
28,199.8364051475263,8.804461948044344E-6,2.469355882157213E-4
29,199.82520794948823,9.084750591490156E-6,2.5602033880721143E-4
30,199.81380785261493,9.025165561585875E-6,2.650455043687973E-4
31,199.80226330389357,9.058327839975123E-6,2.741038322087724E-4
32,199.79009348943526,9.005089134987234E-6,2.8310892134375965E-4
33,199.7774962542266,9.05880740397025E-6,2.921677287477299E-4
34,199.7646668969512,8.90975725799591E-6,3.010774860057258E-4
35,199.75135066900305,9.100645256996E-6,3.101781312627218E-4
36,199.7375222339768,9.080601944721637E-6,3.1925873320744343E-4
37,199.72378218396508,8.778440547681214E-6,3.2803717375512464E-4
38,199.70998639949755,8.913887772894737E-6,3.369510615280194E-4
39,199.69601193209135,8.986766098253742E-6,3.459378276262731E-4
40,199.6819629048426,8.70049205565787E-6,3.54638319681931E-4
41,199.66789664267824,8.660451637926253E-6,3.6329877131985723E-4
42,199.65357783292401,8.71375801371035E-6,3.7201252933356755E-4
43,199.63928590351392,8.49162851797914E-6,3.805041578515467E-4
44,199.62514100790315,8.347367785999077E-6,3.888515256375458E-4
45,199.61090594015596,8.289185541585527E-6,3.9714071117913136E-4
46,199.5962605103869,8.254543741454274E-6,4.0539525492058563E-4
47,199.58180420244975,8.151687129497605E-6,4.135469420500832E-4
48,199.56681780676664,8.283048703866917E-6,4.2182999075395016E-4
49,199.5518356088937,8.261506598826312E-6,4.300914973527765E-4
50,199.53646233129683,8.340401829074075E-6,4.384318991818506E-4
51,199.52149222464323,8.214452163734666E-6,4.4664635134558525E-4
52,199.5062059351134,8.15908131227793E-6,4.5480543265786317E-4
53,199.4918297519594,8.130627157051584E-6,4.6293605981491474E-4
54,199.47676873502263,8.328251589167035E-6,4.7126431140408177E-4
55,199.46142446874813,8.306172199733474E-6,4.795704836038152E-4
56,199.44647264827313,8.300090866845295E-6,4.878705744706605E-4
57,199.43079066545621,8.552167298999034E-6,4.964227417696595E-4
58,199.41514220325266,8.502270229091475E-6,5.04925011998751E-4
59,199.3989832832565,8.611897533625815E-6,5.135369095323768E-4
60,199.3824321786114,8.577045622791758E-6,5.221139551551685E-4
61,199.3663991318135,8.410161399480231E-6,5.305241165546487E-4
62,199.35047791634506,8.513102980501139E-6,5.390372195351498E-4
63,199.33481646270195,8.469842892266299E-6,5.475070624274161E-4
64,199.31953540635115,8.437208611469085E-6,5.559442710388852E-4
65,199.30392255257792,8.453260909562818E-6,5.64397531948448E-4
66,199.28738429669679,8.607754516744848E-6,5.730052864651928E-4
67,199.27032547412918,8.564465161878735E-6,5.815697516270716E-4
68,199.25380626333538,8.39205075098783E-6,5.899618023780594E-4
69,199.23693196478092,8.525466292606764E-6,5.984872686706661E-4
70,199.2203657489934,8.485156369593109E-6,6.069724250402592E-4
71,199.20256869016174,8.605732762525826E-6,6.15578157802785E-4
72,199.18466692714208,8.690043934960204E-6,6.242682017377452E-4
73,199.16646643009432,8.874640749353556E-6,6.331428424870987E-4
74,199.14777699857387,8.948104829993696E-6,6.420909473170924E-4
75,199.12857448868766,8.822731319203806E-6,6.509136786362962E-4
76,199.10899967773926,8.842791668494689E-6,6.597564703047908E-4
77,199.08888501409254,8.836331707151955E-6,6.685928020119428E-4
78,199.0685617478279,8.820172276603902E-6,6.774129742885467E-4
79,199.0483883239053,8.57858120985786E-6,6.859915554984046E-4
80,199.027833899189,8.598044191843196E-6,6.945895996902478E-4
81,199.00734299988113,8.505349063298906E-6,7.030949487535467E-4
82,198.98663241077205,8.53060450567489E-6,7.116255532592215E-4
83,198.96602870557643,8.501775711665172E-6,7.201273289708868E-4
84,198.94549809806227,8.56429604993091E-6,7.286916250208177E-4
85,198.92561044153803,8.330021941834949E-6,7.370216469626526E-4
86,198.90601627397083,8.336474052869863E-6,7.453581210155225E-4
87,198.8867577109246,8.252448981131E-6,7.536105699966534E-4
88,198.8671736662835,8.279732304050034E-6,7.618903023007034E-4
89,198.84761220318035,8.19014794050318E-6,7.700804502412066E-4
90,198.82681193389584,8.277371252820912E-6,7.783578214940276E-4
91,198.8060183372662,8.252688859142485E-6,7.866105103531701E-4
92,198.78375138881196,8.510073897465075E-6,7.951205842506351E-4
93,198.7611504267993,8.509742070325638E-6,8.036303263209608E-4
94,198.7388407036869,8.471949552262093E-6,8.121022758732229E-4
95,198.7159348148061,8.695937170711129E-6,8.20798213043934E-4
96,198.69234142974247,8.696942077903627E-6,8.294951551218377E-4
97,198.66817475711593,8.585738165783291E-6,8.380808932876209E-4
98,198.64280728113815,8.800553204627688E-6,8.468814464922486E-4
99,198.61723348519993,8.726359057759529E-6,8.556078055500082E-4
100,198.59146376028463,8.647069006531543E-6,8.642548745565398E-4
101,198.56473965281396,8.733224640841528E-6,8.729880991973813E-4
102,198.53870156630538,8.38660423940689E-6,8.813747034367882E-4
103,198.5123901167602,8.422868006062827E-6,8.89797571442851E-4
104,198.486103831299,8.366784373586833E-6,8.981643558164379E-4
105,198.45881396806718,8.418502446549307E-6,9.065828582629871E-4
106,198.43183967970245,8.389057274938082E-6,9.149719155379252E-4
107,198.40485605303545,8.506962739348369E-6,9.234788782772735E-4
108,198.37743183179336,8.486075345147815E-6,9.319649536224213E-4
109,198.34946958314544,8.570690222758547E-6,9.405356438451799E-4
110,198.32194871067756,8.432067049787106E-6,9.48967710894967E-4
111,198.29455922890938,8.290646514631415E-6,9.572583574095984E-4
112,198.26619313239834,8.406623047569165E-6,9.656649804571676E-4
113,198.2378457963331,8.353375393815001E-6,9.740183558509826E-4
114,198.2097510154252,8.345929267473538E-6,9.82364285118456E-4
115,198.18111080834353,8.214185323462601E-6,9.905784704419187E-4
116,198.15282765217873,8.251496311385027E-6,9.988299667533036E-4
117,198.12457973414234,8.209156989372962E-6,0.0010070391237426766
118,198.0965066097277,8.182507845675839E-6,0.0010152216315883525
119,198.06743065355582,8.335181534635798E-6,0.0010235568131229883
120,198.0378365296635,8.36328487047937E-6,0.0010319200979934677
121,198.00883599139118,8.395223882010085E-6,0.0010403153218754779
122,197.979721310567,8.54909342492747E-6,0.0010488644153004054
123,197.95081524873981,8.4138246536584E-6,0.0010572782399540638
124,197.92197425125195,8.509118609247311E-6,0.001065787358563311
125,197.89359391576687,8.312852506071622E-6,0.0010741002110693828
126,197.86616107651778,8.130175666461907E-6,0.0010822303867358447
127,197.83907928566848,8.073769988140241E-6,0.001090304156723985
128,197.8113663825839,8.183725860791387E-6,0.0010984878825847763
129,197.78467633387203,8.08765159605278E-6,0.0011065755341808292
130,197.757246805481,8.152155347507421E-6,0.0011147276895283366
131,197.7294504115073,8.178184508696907E-6,0.0011229058740370335
132,197.70265470054247,8.387324357508788E-6,0.0011312931983945423
133,197.6745310728451,8.443334380938346E-6,0.0011397365327754808
134,197.64734843412708,8.261337873814187E-6,0.001147997870649295
135,197.62090010423083,8.132021849543357E-6,0.0011561298924988384
136,197.59453266855715,8.159078634758152E-6,0.0011642889711335966
137,197.56858488312173,8.050515237044023E-6,0.0011723394863706407
138,197.54222675017104,8.00767500820426E-6,0.001180347161378845
139,197.51657403206832,7.941293011344738E-6,0.0011882884543901898
140,197.49127932525502,8.081206635146588E-6,0.0011963696610253363
141,197.46658587260777,8.039306071675571E-6,0.001204408967097012
142,197.4406445982369,8.140362923056758E-6,0.0012125493300200688
143,197.41599363410384,8.188553545341392E-6,0.0012207378835654102
144,197.39167991395448,8.154618234910204E-6,0.0012288925018003204
145,197.3672511102817,8.253432564922533E-6,0.001237145934365243
146,197.34269068843375,8.208486909350275E-6,0.0012453544212745933
147,197.31704444663347,8.137251123062376E-6,0.0012534916723976556
148,197.29221005335734,7.827235005713704E-6,0.0012613189074033692
149,197.26725844734403,7.611926973735959E-6,0.001268930834377105
150,197.24292247777623,7.510736530235073E-6,0.0012764415709073402
151,197.21832879341412,7.579129358194066E-6,0.0012840207002655342
152,197.19357293016378,7.670587040095235E-6,0.0012916912873056296
153,197.1687118950034,7.621436575228283E-6,0.0012993127238808578
154,197.14429846167255,7.5194029454560836E-6,0.001306832126826314
155,197.1194363334761,7.538950809133935E-6,0.001314371077635448
156,197.09304215034456,7.73093526337994E-6,0.001322102012898828
157,197.0668391503778,7.63908695837376E-6,0.0013297410998572017
158,197.03952332764297,7.827443009693889E-6,0.0013375685428668955
159,197.01202523026964,7.968743245253067E-6,0.0013455372861121485
160,196.9840030871379,8.091639995902932E-6,0.0013536289261080513
161,196.95547103058084,8.069711832660248E-6,0.0013616986379407115
162,196.92632645008746,8.124846362727121E-6,0.0013698234843034385
163,196.89663190526048,8.166665148754405E-6,0.001377990149452193
164,196.86586922932662,8.280359031399707E-6,0.0013862705084835927
165,196.8355422843581,8.460442552689358E-6,0.0013947309510362821
166,196.80582127429363,8.302092241353928E-6,0.001403033043277636
167,196.77499760821638,8.321301693702147E-6,0.001411354344971338
168,196.7428582154225,8.24764435244831E-6,0.0014196019893237862
169,196.71123185022418,8.074007716505074E-6,0.0014276759970402913
170,196.6792614904432,8.09034024723777E-6,0.001435766337287529
171,196.6481497251049,8.002476650874517E-6,0.0014437688139384037
172,196.61757669320858,8.015626755309538E-6,0.001451784440693713
173,196.58811561158163,7.85379286725332E-6,0.0014596382335609664
174,196.56021044904062,7.826811518912339E-6,0.0014674650450798787
175,196.53242498228553,7.777462759121757E-6,0.0014752425078390003
176,196.50357979889077,7.969130429810974E-6,0.0014832116382688114
177,196.47534486235995,7.73922183170933E-6,0.0014909508601005208
178,196.44635744745017,7.5936569370928354E-6,0.0014985445170376136
179,196.41682863977414,7.730674576509578E-6,0.001506275191614123
180,196.38706368522003,7.769182975264804E-6,0.001514044374589388
181,196.35751257767035,7.729677293909159E-6,0.0015217740518832972
182,196.3279856363322,7.779212501152615E-6,0.0015295532643844498
183,196.29770804239436,7.701043125516902E-6,0.0015372543075099668
184,196.266880468617,7.82133762610578E-6,0.0015450756451360725
185,196.2365512734333,7.673571571351597E-6,0.0015527492167074241
186,196.20533155435353,7.825985922022063E-6,0.0015605752026294462
187,196.17478257050004,7.726425551047343E-6,0.0015683016281804935
188,196.14363375681413,7.81393583270098E-6,0.0015761155640131945
189,196.11246648441963,7.74317924761089E-6,0.0015838587432608054
190,196.08095688892976,7.62765422917217E-6,0.0015914863974899776
191,196.04964770355596,7.540818677786401E-6,0.001599027216167764
192,196.01777057077902,7.644143398059406E-6,0.0016066713595658236
193,195.98731684838347,7.57933455087306E-6,0.0016142506941166966
194,195.95767950122607,7.441479363068314E-6,0.001621692173479765
195,195.92772165020938,7.522634358213087E-6,0.001629214807837978
196,195.89756383266493,7.5336695888725945E-6,0.0016367484774268506
197,195.86762095136868,7.528988224937887E-6,0.0016442774656517884
198,195.8382407297683,7.3819759946584145E-6,0.0016516594416464468
199,195.8090752929713,7.257218660785435E-6,0.0016589166603072324
200,195.78052395662127,7.315205319251644E-6,0.001666231865626484
201,195.75216324915291,7.319464263684995E-6,0.001673551329890169
202,195.72323008537364,7.285162157625524E-6,0.0016808364920477944
203,195.69363300333222,7.258086722318018E-6,0.0016880945787701124
204,195.66422534979347,7.164709285790333E-6,0.0016952592880559027
205,195.63537222960508,7.094924820213405E-6,0.0017023542128761161
206,195.6064807712244,7.10921248578934E-6,0.0017094634253619055
207,195.57849692976507,7.0797079549476325E-6,0.001716543133316853
208,195.55058568174104,7.192493705534644E-6,0.0017237356270223877
209,195.5228907859571,7.245577752978988E-6,0.0017309812047753667
210,195.49496245315217,7.381924161991208E-6,0.001738363128937358
211,195.4662728257379,7.600806942592118E-6,0.00174596393587995
212,195.43868088365141,7.5749712365905435E-6,0.0017535389071165405
213,195.41078330907678,7.610230508326312E-6,0.0017611491376248668
214,195.38285840784172,7.549021398763656E-6,0.0017686981590236306
215,195.3546431688323,7.678028483200946E-6,0.0017763761875068315
216,195.32706694620427,7.799730973486328E-6,0.0017841759184803179
217,195.299741297076,7.70547639844774E-6,0.0017918813948787657
218,195.27318460502252,7.73945022527863E-6,0.0017996208451040443
219,195.24758728925318,7.787612019314187E-6,0.0018074084571233584
220,195.2216661538111,7.804880835564352E-6,0.0018152133379589228
221,195.19566509758215,7.883754472118118E-6,0.001823097092431041
222,195.16884810887277,7.90882683003917E-6,0.0018310059192610801
223,195.13975648132504,7.960085570971697E-6,0.001838966004832052
224,195.11080256569653,7.935516557177498E-6,0.0018469015213892295
225,195.07977295034752,8.092333265541135E-6,0.0018549938546547707
226,195.04936273735578,8.096511888403271E-6,0.0018630903665431738
227,195.01920640222622,8.056822113967593E-6,0.0018711471886571414
228,194.9893727986005,8.051374030421115E-6,0.0018791985626875625
229,194.96033812169614,8.10282068879427E-6,0.0018873013833763568
230,194.9313336924849,8.260091893294427E-6,0.0018955614752696511
231,194.9019307551082,8.258349007832747E-6,0.001903819824277484
232,194.8723229957526,8.187924831017772E-6,0.0019120077491085016
233,194.84327676497116,8.157106566829683E-6,0.0019201648556753314
234,194.81426230721362,8.028275270064892E-6,0.0019281931309453964
235,194.7851252708639,8.093756331109187E-6,0.0019362868872765055
236,194.7557706013504,8.181124204340647E-6,0.0019444680114808462
237,194.72549699773174,8.217657956180652E-6,0.0019526856694370269
238,194.69532070992486,8.07762783605055E-6,0.0019607632972730776
239,194.66492460998595,8.051019191878882E-6,0.0019688143164649564
240,194.63455322287206,7.924864000436548E-6,0.001976739180465393
241,194.60605254318108,7.673747508752228E-6,0.001984412927974145
242,194.57837830294298,7.629452027595384E-6,0.0019920423800017404
243,194.55016561740825,7.498296889533169E-6,0.0019995406768912737
244,194.52096392119785,7.538708195135078E-6,0.0020070793850864087
245,194.49127460127505,7.663428308106424E-6,0.0020147428133945153
246,194.46129331652233,7.727195175168242E-6,0.0020224700085696833
247,194.43179929469187,7.810596695596174E-6,0.0020302806052652795
248,194.40188147200158,7.784115536477533E-6,0.002038064720801757
249,194.37268993355758,7.762330703681875E-6,0.002045827051505439
250,194.34452903099788,7.686817924508482E-6,0.002053513869429947
251,194.3168885138436,7.789775149842106E-6,0.0020613036445797893
252,194.2902279262624,7.824169473693988E-6,0.002069127814053483
253,194.26465761710665,7.749954599243484E-6,0.0020768777686527265
254,194.2372681153173,8.042064448030792E-6,0.0020849198331007574
255,194.2094096442843,7.971497275446204E-6,0.0020928913303762038
256,194.18050780762943,8.087725304208902E-6,0.0021009790556804128
257,194.15245656215916,8.132165046379391E-6,0.002109111220726792
258,194.1238380626306,8.185471272873182E-6,0.0021172966919996653
259,194.09620391333272,8.208128650958756E-6,0.002125504820650624
260,194.06758397288735,8.28252054237211E-6,0.0021337873411929964
261,194.03788074842237,8.083464964518153E-6,0.0021418708061575146
262,194.00823814172162,7.921664881653036E-6,0.0021497924710391675
263,193.97817950525163,7.913264275335802E-6,0.0021577057353145035
264,193.94809302669745,7.775768259171904E-6,0.0021654815035736753
265,193.91819985175076,7.800260786154146E-6,0.0021732817643598293
266,193.8871883259968,7.803423801612056E-6,0.0021810851881614414
267,193.8556948993018,7.817773047274916E-6,0.0021889029612087163
268,193.82483831666738,7.79655480534109E-6,0.0021966995160140573
269,193.79390919948085,7.933830362604815E-6,0.0022046333463766623
270,193.7628064767584,8.08886636687816E-6,0.0022127222127435405
271,193.7322306583078,8.139349892173626E-6,0.0022208615626357142
272,193.70178860537436,7.91946233631323E-6,0.0022287810249720275
273,193.67078631846084,7.81119632925914E-6,0.0022365922213012867
274,193.6389022944306,7.664040888505504E-6,0.002244256262189792
275,193.6069073339327,7.706059800452337E-6,0.0022519623219902445
276,193.57648851402803,7.50950085739674E-6,0.0022594718228476415
277,193.54746590331482,7.437723966416518E-6,0.002266909546814058
278,193.5170206815494,7.562298776193524E-6,0.0022744718455902516
279,193.48584303817,7.59467589328038E-6,0.002282066521483532
280,193.4540420598696,7.724251107815923E-6,0.0022897907725913475
281,193.42277171552982,7.628486517433708E-6,0.002297419259108781
282,193.39145317201888,7.575576840835461E-6,0.0023049948359496167
283,193.35916501922213,7.554688389983055E-6,0.0023125495243395996
284,193.3269462154814,7.58135163451669E-6,0.0023201308759741163
285,193.29568731812276,7.418627642798935E-6,0.002327549503616915
286,193.26460217820383,7.386388659966721E-6,0.002334935892276882
287,193.233269497823,7.404022838545486E-6,0.0023423399151154276
288,193.2017511845262,7.408625966302414E-6,0.00234974854108173
289,193.16977403942738,7.420894962205285E-6,0.002357169436043935
290,193.13804774871213,7.35385013268283E-6,0.002364523286176618
291,193.10673492848522,7.375346997324442E-6,0.0023718986331739424
292,193.076933124236,7.347739705912809E-6,0.0023792463728798553
293,193.04676617992652,7.427319920932998E-6,0.0023866736928007883
294,193.01738890043933,7.4749223719660726E-6,0.0023941486151727543
295,192.98712798651678,7.595006171664071E-6,0.002401743621344418
296,192.95674811343326,7.652722776020364E-6,0.0024093963441204386
297,192.92723449235734,7.480790032341635E-6,0.00241687713415278
298,192.89854846210534,7.445187900406108E-6,0.0024243223220531862
299,192.87100623866561,7.240459361425809E-6,0.0024315627814146122
300,192.84322054355877,7.468875779235538E-6,0.002439031657193848
301,192.8150094834497,7.4198820671009834E-6,0.002446451539260949
302,192.788321144959,7.394126382400759E-6,0.0024538456656433495
303,192.76109859903798,7.417689879911197E-6,0.0024612633555232606
304,192.73282289934494,7.48433313687066E-6,0.0024687476886601314
305,192.70343030254267,7.523951247928884E-6,0.00247627163990806
306,192.67376245603407,7.5029425438631965E-6,0.0024837745824519233
307,192.64482143527758,7.394894533010314E-6,0.0024911694769849334
308,192.61549187266343,7.621327919816817E-6,0.0024987908049047504
