#t,ESS,tempDiff,temp
0,200.00000000000065,0.0,0.0
1,199.99976624701148,2.1984178819309862E-5,2.1984178819309862E-5
2,199.99905857645842,2.2213247531624713E-5,4.4197426350934575E-5
3,199.99796302229674,2.1892316877608598E-5,6.608974322854317E-5
4,199.9964026762376,2.210960220972585E-5,8.819934543826903E-5
5,199.99445504874143,2.1909706735583657E-5,1.1010905217385268E-4
6,199.99210512894987,2.1948645260184447E-5,1.3205769743403713E-4
7,199.98920721715376,2.232067524387504E-5,1.5437837267791218E-4
8,199.9859402250879,2.2021085401547838E-5,1.7639945807946001E-4
9,199.98230763567415,2.1760472638560276E-5,1.9815993071802028E-4
10,199.97846950177473,2.0602921099467323E-5,2.1876285181748762E-4
11,199.97399699849342,2.120197616330188E-5,2.399648279807895E-4
12,199.96887480578008,2.1599695501646283E-5,2.615645234824358E-4
13,199.96345371604983,2.1213851674810356E-5,2.827783751572461E-4
14,199.9576825494232,2.117302342356069E-5,3.039513985808068E-4
15,199.9518405077053,2.0165079356152774E-5,3.241164779369596E-4
16,199.94560651358054,2.061917945055362E-5,3.447356573875132E-4
17,199.9390691665013,2.085522978843512E-5,3.655908871759483E-4
18,199.93204696388415,2.101868182640674E-5,3.8660956900235505E-4
19,199.9245405794988,2.1184128214096897E-5,4.0779369721645193E-4
20,199.9166772046832,2.1325717351401825E-5,4.291194145678538E-4
21,199.90865894935425,2.0834989067959486E-5,4.4995440363581327E-4
22,199.90105252021644,2.0732633077187574E-5,4.706870367130008E-4
23,199.89298743564848,2.0646351644600813E-5,4.913333883576017E-4
24,199.88457091532396,2.065944697644532E-5,5.11992835334047E-4
25,199.8758961513113,2.0342286416564456E-5,5.323351217506114E-4
26,199.8669197121191,2.0472233649972044E-5,5.528073554005835E-4
27,199.85761947501499,2.0514663954122365E-5,5.733220193547059E-4
28,199.84750905096314,2.0702970805410046E-5,5.94024990160116E-4
29,199.83744015009393,2.0199432937319476E-5,6.142244230974355E-4
30,199.82705244095436,2.0480363521606362E-5,6.347047866190419E-4
31,199.81613917350197,2.040032198646372E-5,6.551051086055056E-4
32,199.80516937515986,2.0597711078328712E-5,6.757028196838343E-4
33,199.794563424486,1.9898647580233898E-5,6.956014672640682E-4
34,199.78355999443968,2.04612784146173E-5,7.160627456786854E-4
35,199.77192819745107,2.1460636163169822E-5,7.375233818418552E-4
36,199.76043871445046,2.107908951019834E-5,7.586024713520536E-4
37,199.74844791559647,2.1325785602726725E-5,7.799282569547803E-4
38,199.73649389280578,2.0715397205723178E-5,8.006436541605035E-4
39,199.724410617846,2.134374304457786E-5,8.219873972050814E-4
40,199.71210493182167,2.131479084875014E-5,8.433021880538315E-4
41,199.69962979003068,2.084565374529236E-5,8.641478417991239E-4
42,199.6867988841412,2.1023986338090025E-5,8.851718281372139E-4
43,199.67381761114805,2.0795134476272237E-5,9.059669626134861E-4
44,199.66069204769877,2.1192440590070127E-5,9.271594032035563E-4
45,199.6465193641195,2.1730660167000324E-5,9.488900633705566E-4
46,199.63192981205145,2.2587531936321985E-5,9.714775953068785E-4
47,199.61711811410527,2.2427023530903003E-5,9.939046188377815E-4
48,199.60222659967536,2.2447953293218958E-5,0.0010163525721310004
49,199.5864306571987,2.2373416276921757E-5,0.0010387259884079222
50,199.56958267429863,2.2221645000924446E-5,0.0010609476334088467
51,199.55240129761782,2.214746485970353E-5,0.0010830950982685503
52,199.53507484403428,2.2057971191934642E-5,0.0011051530694604849
53,199.5174932447429,2.2099855455234285E-5,0.0011272529249157191
54,199.49986141773059,2.204350193637519E-5,0.0011492964268520944
55,199.48122468107223,2.2136855769410884E-5,0.0011714332826215053
56,199.46226391496646,2.177800483527612E-5,0.0011932112874567815
57,199.4426304356156,2.192822719128333E-5,0.001215139514648065
58,199.42269320637442,2.165395236309105E-5,0.001236793467011156
59,199.4029018895269,2.194318729353003E-5,0.001258736654304686
60,199.38255395304472,2.185079473810811E-5,0.0012805874490427942
61,199.36232838823514,2.1390393693657664E-5,0.0013019778427364518
62,199.34172874691595,2.143160026644928E-5,0.001323409443002901
63,199.3204869676843,2.1187997807430477E-5,0.0013445974408103315
64,199.2991637584134,2.047220662746684E-5,0.0013650696474377983
65,199.2772474494337,2.07309741948652E-5,0.0013858006216326635
66,199.25493199562405,2.0862963803012054E-5,0.0014066635854356755
67,199.23283028873342,2.05117095475036E-5,0.001427175294983179
68,199.21076237871318,2.0387105032258125E-5,0.0014475624000154371
69,199.18813524038214,2.0485990731898665E-5,0.0014680483907473358
70,199.16541918803705,2.0346664062732034E-5,0.0014883950548100677
71,199.14313157760222,1.9846983965703075E-5,0.0015082420387757707
72,199.11981644273953,2.0204024229432488E-5,0.0015284460630052032
73,199.09686592842687,1.9737663974929713E-5,0.0015481837269801328
74,199.07359062885507,2.01877814650168E-5,0.0015683715084451497
75,199.0503060314085,2.0218607675483147E-5,0.0015885901161206328
76,199.02697557465663,2.0201963893755054E-5,0.0016087920800143879
77,199.00371021151636,2.000813268446329E-5,0.001628800212698851
78,198.98179424180057,1.9731702337512826E-5,0.001648531915036364
79,198.95937904611458,2.009103957252952E-5,0.0016686229546088935
80,198.93639082070564,1.9828937057030014E-5,0.0016884518916659235
81,198.9137517731594,1.9605389768051523E-5,0.001708057281433975
82,198.8916767112848,1.927376535730332E-5,0.0017273310467912785
83,198.86902010888048,1.94717899319615E-5,0.00174680283672324
84,198.84560676933003,1.9363018639840584E-5,0.0017661658553630806
85,198.82240674054202,1.8664232592872723E-5,0.0017848300879559533
86,198.7987933334889,1.887986845746215E-5,0.0018037099564134154
87,198.77461224026172,1.861091090900146E-5,0.001822320867322417
88,198.75125898954298,1.83464784868178E-5,0.0018406673458092348
89,198.72815356320424,1.8016568626262394E-5,0.0018586839144354972
90,198.7036784989099,1.885170684473457E-5,0.0018775356212802317
91,198.68078487107624,1.849709291481792E-5,0.0018960327141950496
92,198.65802890801984,1.802424448040229E-5,0.0019140569586754519
93,198.634974525458,1.8167814308091755E-5,0.0019322247729835437
94,198.6126127102185,1.8240131301466944E-5,0.0019504649042850106
95,198.59009915869373,1.84427094958345E-5,0.001968907613780845
96,198.5682474890768,1.800906118461393E-5,0.001986916674965459
97,198.54587798715895,1.7966541812891845E-5,0.0020048832167783508
98,198.52285612223994,1.772580185866238E-5,0.0020226090186370132
99,198.49977022452399,1.7505433959718786E-5,0.0020401144525967322
100,198.476908985794,1.7678863357954114E-5,0.0020577933159546865
101,198.45328940251775,1.8304262589196663E-5,0.002076097578543883
102,198.4307250628724,1.7704846614675977E-5,0.002093802425158559
103,198.40729391809424,1.7540177220205197E-5,0.002111342602378764
104,198.38531988228488,1.753779588773317E-5,0.002128880398266497
105,198.36270469021048,1.7615867104075096E-5,0.002146496265370572
106,198.3415783261296,1.7036300223859134E-5,0.0021635325655944312
107,198.32050230414904,1.7042589173320558E-5,0.0021805751547677517
108,198.30008874289305,1.7077320643968197E-5,0.00219765247541172
109,198.279269185484,1.6923887855232684E-5,0.0022145763632669528
110,198.2582719761837,1.7040919267375813E-5,0.0022316172825343284
111,198.23701040361945,1.6683199039644256E-5,0.0022483004815739725
112,198.21532345059373,1.6590045668640407E-5,0.0022648905272426127
113,198.1935496094938,1.676340429852727E-5,0.00228165393154114
114,198.17061072874003,1.70808758425954E-5,0.0022987348073837356
115,198.1477257198787,1.696818202688243E-5,0.002315702989410618
116,198.12577354679638,1.695134698731804E-5,0.002332654336397936
117,198.10321212658428,1.6852475818726865E-5,0.0023495068122166628
118,198.0807431199599,1.7184265485291757E-5,0.0023666910777019544
119,198.05661654694126,1.780006149779412E-5,0.0023844911391997484
120,198.03348425304128,1.7330933255850968E-5,0.0024018220724555993
121,198.00939200509302,1.7708929701074156E-5,0.0024195310021566736
122,197.98491329757104,1.7714310743790024E-5,0.0024372453129004636
123,197.95967646583347,1.7484752231526266E-5,0.0024547300651319897
124,197.93440422834536,1.743124074662924E-5,0.002472161305878619
125,197.90894601373762,1.7827163432788614E-5,0.0024899884693114077
126,197.8833232420639,1.7180471938687923E-5,0.002507168941250096
127,197.85714072809634,1.7834642011676663E-5,0.0025250035832617723
128,197.83235052264598,1.751757632366413E-5,0.0025425211595854363
129,197.80783957327665,1.7217342653668268E-5,0.0025597385022391047
130,197.78155248863345,1.7498610777588015E-5,0.002577237113016693
131,197.75498506144655,1.7792366283193526E-5,0.0025950294792998862
132,197.7287724506907,1.783793055394143E-5,0.0026128674098538276
133,197.70163994818114,1.8050736977167218E-5,0.0026309181468309947
134,197.67509764730977,1.8058472686977974E-5,0.002648976619517973
135,197.64893853372857,1.8044424452702903E-5,0.002667021043970676
136,197.62219666371988,1.8195820788290932E-5,0.002685216864758967
137,197.5957589263727,1.7865913563711804E-5,0.0027030827783226788
138,197.5702574115563,1.7638299361392764E-5,0.0027207210776840716
139,197.54517419917562,1.7622884754687836E-5,0.0027383439624387596
140,197.52006871545683,1.7559601231422845E-5,0.0027559035636701827
141,197.49393445460072,1.7825529298829883E-5,0.0027737290929690126
142,197.46865746026575,1.7194120809325165E-5,0.0027909232137783378
143,197.4429653065035,1.7628486054370077E-5,0.0028085516998327077
144,197.4175011102696,1.760959980355865E-5,0.0028261612996362665
145,197.39154347225377,1.7862534473361076E-5,0.0028440238341096275
146,197.36556979476066,1.7748881268753722E-5,0.0028617727153783814
147,197.33936580721533,1.789434448346287E-5,0.002879667059861844
148,197.3128082587387,1.736868621340102E-5,0.002897035746075245
149,197.28608035766953,1.745944817628021E-5,0.002914495194251525
150,197.25934472249614,1.7924962462439956E-5,0.002932420156713965
151,197.2327061824948,1.7974487338189278E-5,0.0029503946440521543
152,197.2062142568734,1.8104910095871127E-5,0.0029684995541480255
153,197.17967373514705,1.8166780051614965E-5,0.0029866663341996404
154,197.15277692872434,1.8394420527528148E-5,0.0030050607547271687
155,197.1258144300758,1.8820248413819614E-5,0.0030238810031409883
156,197.09910678155265,1.8281734415296437E-5,0.003042162737556285
157,197.0720270144629,1.8325522586657787E-5,0.003060488260142943
158,197.0452786027084,1.8260048832537208E-5,0.0030787483089754803
159,197.0187838672473,1.783784477782582E-5,0.0030965861537533062
160,196.9910745919874,1.790512681699056E-5,0.0031144912805702966
161,196.964461074419,1.8038501003702723E-5,0.0031325297815739993
162,196.93789214157664,1.820475736707033E-5,0.00315073453894107
163,196.91031983569275,1.830053914256438E-5,0.0031690350780836343
164,196.88249613012476,1.905597512535661E-5,0.003188091053208991
165,196.85667021398814,1.8359039743273754E-5,0.003206450092952265
166,196.83080075142794,1.808372914060058E-5,0.0032245338220928655
167,196.8051525696074,1.842911350363326E-5,0.0032429629355964986
168,196.7792515051551,1.881296399382417E-5,0.0032617758995903226
169,196.7539322880881,1.879752505052631E-5,0.0032805734246408487
170,196.72936587948075,1.8596156009278798E-5,0.0032991695806501276
171,196.703702464861,1.8930046733565307E-5,0.003318099627383693
172,196.67786575385324,1.867933993413156E-5,0.0033367789673178242
173,196.6525719778489,1.8001325839309008E-5,0.0033547802931571335
174,196.6258708128874,1.8053831594026694E-5,0.0033728341247511603
175,196.5993300261697,1.7598335663612773E-5,0.0033904324604147732
176,196.57408185088832,1.7560513592559077E-5,0.003407992974007332
177,196.5495431203234,1.75434825061229E-5,0.003425536456513455
178,196.52528549796318,1.7372114964091475E-5,0.0034429085714775464
179,196.5009995685942,1.7539454893172073E-5,0.0034604480263707186
180,196.47603571733617,1.7974405156000225E-5,0.003478422431526719
181,196.4526402234251,1.778040510939564E-5,0.0034962028366361145
182,196.43000404565942,1.788353905607553E-5,0.00351408637569219
183,196.4082148578549,1.8111251432907507E-5,0.0035321976271250975
184,196.38624428533493,1.8600170568991648E-5,0.0035507977976940892
185,196.36397567808174,1.8385968612449353E-5,0.0035691837663065387
186,196.34198266563408,1.8391948012470853E-5,0.0035875757143190097
187,196.32047010979875,1.8293370776797603E-5,0.0036058690850958074
188,196.29721179820172,1.8798647499781702E-5,0.003624667732595589
189,196.2747460109287,1.8555715024260623E-5,0.0036432234476198497
190,196.25235557247206,1.9069061257850565E-5,0.0036622925088777
191,196.22864036219184,1.9536515941791268E-5,0.0036818290248194913
192,196.2045631460621,1.8969948845956325E-5,0.0037007989736654477
193,196.18222506580466,1.8906340175407305E-5,0.003719705313840855
194,196.16049074658414,1.8721462503951857E-5,0.003738426776344807
195,196.13667098346565,1.9100166737668062E-5,0.003757526943082475
196,196.1146426492541,1.9042178221677713E-5,0.003776569121304153
197,196.0935136189321,1.9012569155333635E-5,0.0037955816904594866
198,196.07245543171052,1.8964611448232798E-5,0.0038145463019077196
199,196.05181024336943,1.858442877673412E-5,0.0038331307306844536
200,196.03102518532867,1.8746336115602764E-5,0.0038518770668000565
201,196.0106095945521,1.8526515414215168E-5,0.0038704035822142717
202,195.98935631298178,1.8000405034195433E-5,0.0038884039872484674
203,195.9668566995222,1.7831725028365957E-5,0.003906235712276833
204,195.94293973384083,1.778984247438946E-5,0.003924025554751223
205,195.91921748157603,1.766418815614839E-5,0.003941689742907371
206,195.89591945755456,1.775695636585086E-5,0.003959446699273222
207,195.87224115439378,1.7630329851936257E-5,0.003977077029125158
208,195.84659309800594,1.789916837028196E-5,0.00399497619749544
209,195.82357708887514,1.7062839806089884E-5,0.00401203903730153
210,195.8002494881978,1.7127602032776476E-5,0.004029166639334307
211,195.77773944827575,1.725050438659262E-5,0.004046417143720899
212,195.75366316461285,1.727213869179449E-5,0.004063689282412694
213,195.72845621682538,1.758724977955264E-5,0.004081276532192246
214,195.70543824785827,1.7453633617987993E-5,0.004098730165810234
215,195.68344549556375,1.7168705337692738E-5,0.004115898871147926
216,195.66115819086724,1.684063871120285E-5,0.004132739509859129
217,195.63916704538346,1.6876875443392416E-5,0.004149616385302521
218,195.6173814209256,1.6913826300536785E-5,0.004166530211603058
219,195.59673693900115,1.708251959504592E-5,0.0041836127311981035
220,195.57483598637216,1.725151649908175E-5,0.004200864247697185
221,195.55262376025615,1.7291470801558767E-5,0.0042181557184987435
222,195.52953425633962,1.763171795130913E-5,0.004235787436450053
223,195.50593798280866,1.8206904120267065E-5,0.00425399434057032
224,195.4824690816764,1.793495746295159E-5,0.0042719292980332715
225,195.4580845459912,1.830060256782309E-5,0.004290229900601095
226,195.43392637287886,1.83514211372828E-5,0.004308581321738378
227,195.4097804480296,1.8406450035280336E-5,0.004326987771773658
228,195.38506916337622,1.8530879424692953E-5,0.004345518651198351
229,195.35964765870276,1.8708891154675984E-5,0.004364227542353027
230,195.33432400927762,1.8819578308136693E-5,0.0043830471206611635
231,195.30940898947728,1.919176370229073E-5,0.004402238884363454
232,195.28412463423783,1.894193736929843E-5,0.004421180821732752
233,195.25895208791863,1.890047618579178E-5,0.004440081297918544
234,195.23233208760786,1.9189366366544855E-5,0.004459270664285089
235,195.20716931337282,1.9031355786773586E-5,0.0044783020200718626
236,195.18316375911465,1.8987210798342685E-5,0.0044972892308702056
237,195.15906409063743,1.8347306923090305E-5,0.004515636537793296
238,195.13529201485628,1.8678241963255902E-5,0.004534314779756552
239,195.1101146819597,1.8695761504058927E-5,0.004553010541260611
240,195.08550077151082,1.8979450863037083E-5,0.004571989992123647
241,195.05988959092974,1.8684817125323042E-5,0.00459067480924897
242,195.03441058507363,1.8347786532321365E-5,0.0046090225957812914
243,195.00826754551989,1.8864553957384163E-5,0.004627887149738675
244,194.9824456602052,1.8499891085527692E-5,0.004646387040824203
245,194.95695681582484,1.8192027918979992E-5,0.0046645790687431824
246,194.93121986750938,1.8335010114326023E-5,0.004682914078857509
247,194.90714143475387,1.817112208525478E-5,0.004701085200942764
248,194.8838415365934,1.7955761620407437E-5,0.004719040962563171
249,194.86106246146406,1.779847183905072E-5,0.004736839434402222
250,194.8385046219911,1.7697867129386084E-5,0.004754537301531608
251,194.8167695304699,1.7363777864477457E-5,0.0047719010793960855
252,194.79590600732243,1.73039804244277E-5,0.0047892050598205135
253,194.77546664482745,1.747947602868222E-5,0.004806684535849196
254,194.7535378870028,1.7862415501383048E-5,0.004824546951350579
255,194.73085383795586,1.7808010099983458E-5,0.0048423549614505625
256,194.7098461696002,1.7339225128965005E-5,0.004859694186579527
257,194.68911265471962,1.777816900723206E-5,0.00487747235558676
258,194.6675105494603,1.7961916256742637E-5,0.004895434271843502
259,194.6440163983459,1.8038065639311534E-5,0.004913472337482814
260,194.62085300296397,1.8026273226593334E-5,0.004931498610709407
261,194.59689562066475,1.8252380584994865E-5,0.004949750991294402
262,194.5723069504033,1.8357154604016988E-5,0.004968108145898419
263,194.5467171314901,1.8310618333694094E-5,0.004986418764232113
264,194.5187980338041,1.8474910465669426E-5,0.005004893674697782
265,194.49133526838907,1.788149179882349E-5,0.005022775166496606
266,194.4640806019515,1.801339684119005E-5,0.005040788563337796
267,194.43561389667445,1.7986972232904312E-5,0.0050587755355707
268,194.40755317383366,1.787148126754889E-5,0.00507664701683825
269,194.3788737145944,1.7574373425422608E-5,0.005094221390263672
270,194.350089138299,1.714594215894387E-5,0.005111367332422617
271,194.32205579589026,1.7242765344751264E-5,0.005128610097767368
272,194.2945499287587,1.715970030710186E-5,0.005145769798074469
273,194.26701003652937,1.6888306234568812E-5,0.005162658104309038
274,194.2395230787806,1.6766827515009297E-5,0.005179424931824047
275,194.21244178410203,1.6758990535682283E-5,0.0051961839223597294
276,194.18547306603313,1.6856453321653035E-5,0.005213040375681382
277,194.15715724454435,1.6948562835109927E-5,0.0052299889385164925
278,194.13016415160934,1.6827642222511736E-5,0.005246816580739004
279,194.1051759236788,1.688809288003539E-5,0.00526370467361904
280,194.0793994011777,1.679999029664344E-5,0.005280504663915684
281,194.0535260389213,1.6974687932094493E-5,0.005297479351847778
282,194.02848569455725,1.702879829286658E-5,0.005314508150140645
283,194.00274877103448,1.7155516035273412E-5,0.005331663666175918
284,193.9760744939137,1.734923746460053E-5,0.0053490129036405185
285,193.948276928123,1.734970572807989E-5,0.0053663626093685985
286,193.91987190991352,1.719820255846116E-5,0.005383560811927059
287,193.89187057823182,1.715863109241716E-5,0.005400719443019476
288,193.86133392972513,1.7543745537234464E-5,0.005418263188556711
289,193.83025503536427,1.7645739107140743E-5,0.005435908927663852
290,193.79950352406223,1.7803920029538626E-5,0.005453712847693391
291,193.76803581295692,1.7862677412241298E-5,0.005471575525105632
292,193.7384152429572,1.783329655006704E-5,0.005489408821655699
293,193.70808906308503,1.782498798913376E-5,0.005507233809644832
294,193.677846481236,1.772901892020134E-5,0.005524962828565034
295,193.65011861378514,1.7398560048065068E-5,0.005542361388613099
296,193.6231626942828,1.713640824216431E-5,0.005559497796855263
297,193.59605150476622,1.703929924349654E-5,0.0055765370960987595
298,193.56909510765627,1.7211781618556555E-5,0.005593748877717316
299,193.5423576139342,1.7220637523073853E-5,0.00561096951524039
300,193.51449137615296,1.717383544276081E-5,0.0056281433506831504
301,193.48579274613428,1.7146009954956606E-5,0.0056452893606381074
302,193.45746356039876,1.735609087405383E-5,0.005662645451512161
303,193.42916846441727,1.7564564593477825E-5,0.005680210016105639
304,193.4027986359278,1.7609155855912154E-5,0.005697819171961552
305,193.37642457924383,1.7427030993711454E-5,0.005715246202955263
