#t,ESS,tempDiff,temp
0,200.00000000000065,0.0,0.0
1,199.9998274991138,9.9750868506132E-6,9.9750868506132E-6
2,199.99932435201987,9.836612093868443E-6,1.981169894448164E-5
3,199.99851253400547,9.74282771916698E-6,2.955452666364862E-5
4,199.99736454682414,9.996144422671832E-6,3.955067108632045E-5
5,199.9958776014549,9.832771409187825E-6,4.938344249550828E-5
6,199.99404969143902,1.0006718991380766E-5,5.9390161486889045E-5
7,199.9919270901008,1.0024409084742183E-5,6.941457057163123E-5
8,199.98952037745593,9.915912555833292E-6,7.933048312746452E-5
9,199.98688621394905,9.738311476038816E-6,8.906879460350334E-5
10,199.9840559817444,9.309518620301254E-6,9.83783132238046E-5
11,199.98096706328425,9.394415969885004E-6,1.077727291936896E-4
12,199.97777243447246,9.65243523908151E-6,1.174251644327711E-4
13,199.97419920248973,9.942349708715737E-6,1.2736751414148685E-4
14,199.9703560553278,1.0200221038284976E-5,1.3756773517977183E-4
15,199.96634188518433,1.0247531799415424E-5,1.4781526697918725E-4
16,199.96191915341618,1.0667984696769734E-5,1.58483251675957E-4
17,199.95704426216548,1.0755545553883166E-5,1.6923879722984016E-4
18,199.95221251699584,1.0524893211162634E-5,1.7976369044100279E-4
19,199.947125843828,1.0464284453503758E-5,1.9022797489450655E-4
20,199.94243139640892,1.0096665695574551E-5,2.003246405900811E-4
21,199.93771233150085,9.909332473403712E-6,2.1023397306348481E-4
22,199.93239880235632,1.0191343686599128E-5,2.2042531675008393E-4
23,199.92683517076412,1.0071809722376467E-5,2.304971264724604E-4
24,199.92151802992777,9.983811871963469E-6,2.4048093834442386E-4
25,199.91576290291366,1.0278920430050972E-5,2.5075985877447485E-4
26,199.90992732084194,1.0265596590919403E-5,2.610254553653942E-4
27,199.9038632316898,1.006579667026313E-5,2.7109125203565737E-4
28,199.8977769320539,9.96359105772286E-6,2.8105484309338025E-4
29,199.8916335261055,9.830911276417196E-6,2.9088575436979743E-4
30,199.88516700251657,9.662206991669227E-6,3.0054796136146664E-4
31,199.87855295817133,9.878606015196856E-6,3.104265673766635E-4
32,199.8719510846985,1.0023983341516086E-5,3.2045055071817957E-4
33,199.8654417819346,9.76947185541234E-6,3.302200225735919E-4
34,199.85888020217672,9.512791756721048E-6,3.3973281433031296E-4
35,199.85216259780532,9.564264660693472E-6,3.4929707899100643E-4
36,199.84519096716292,9.709454358704645E-6,3.5900653334971106E-4
37,199.83838789989795,9.696643910353311E-6,3.687031772600644E-4
38,199.8316695270967,9.554860861688999E-6,3.782580381217534E-4
39,199.82499249126118,9.314827447762241E-6,3.875728655695156E-4
40,199.81816522800352,9.58190789871882E-6,3.9715477346823443E-4
41,199.81100265806276,9.461551874670386E-6,4.066163253429048E-4
42,199.80349348324694,9.606027132007003E-6,4.162223524749118E-4
43,199.7957480403774,1.0040702300831523E-5,4.262630547757433E-4
44,199.7882210860494,9.693068702630689E-6,4.35956123478374E-4
45,199.7804206935245,9.77062537842013E-6,4.4572674885679414E-4
46,199.77258813770425,9.696337094827676E-6,4.5542308595162184E-4
47,199.76461545023318,1.00291734498672E-5,4.6545225940148905E-4
48,199.75646287854192,9.925350705601479E-6,4.753776101070905E-4
49,199.74825902487865,9.758359724992758E-6,4.851359698320833E-4
50,199.7396414776073,9.88833127846205E-6,4.950243011105453E-4
51,199.73086423959117,1.0315494762876583E-5,5.053397958734219E-4
52,199.7222227044571,1.0142256612954595E-5,5.154820524863765E-4
53,199.71314598201042,1.0415228180689473E-5,5.25897280667066E-4
54,199.70394741145623,1.0351771830887299E-5,5.362490524979533E-4
55,199.6949538301411,1.0337633189117178E-5,5.465866856870704E-4
56,199.6863216512809,1.0285610850890621E-5,5.568722965379611E-4
57,199.67733779928852,1.024805955724938E-5,5.671203560952105E-4
58,199.66880228671377,1.0230118432775804E-5,5.773504745279863E-4
59,199.65997171806944,1.0452799629966407E-5,5.878032741579527E-4
60,199.65125100060627,1.008919240434215E-5,5.978924665622948E-4
61,199.64212971598153,1.0162504499338562E-5,6.080549710616334E-4
62,199.63282289214465,9.961129271690742E-6,6.180161003333241E-4
63,199.62335290689356,1.0126245838177705E-5,6.281423461715018E-4
64,199.61429010188917,1.0218912803232619E-5,6.383612589747344E-4
65,199.6055448792891,1.0279112636693202E-5,6.486403716114276E-4
66,199.59597213293355,1.023304289737524E-5,6.588734145088029E-4
67,199.5860213835025,1.0075240005159102E-5,6.68948654513962E-4
68,199.57664476212406,1.0108175523943875E-5,6.790568300379059E-4
69,199.56655013813818,9.969532360699859E-6,6.890263623986057E-4
70,199.55672158728044,1.0160302701970502E-5,6.991866651005763E-4
71,199.54681775767133,1.0024253304946289E-5,7.092109184055226E-4
72,199.53692597266746,9.936616115132951E-6,7.191475345206556E-4
73,199.5273166257601,1.0005414552782732E-5,7.291529490734383E-4
74,199.51774130790065,9.95478513970167E-6,7.3910773421314E-4
75,199.50747724682878,9.98745348227581E-6,7.490951876954158E-4
76,199.49700125777454,9.998321847792988E-6,7.590935095432088E-4
77,199.48720735963985,9.855789777471505E-6,7.689492993206803E-4
78,199.47715327241505,9.894561090738479E-6,7.788438604114189E-4
79,199.46674962201527,1.0040320202382801E-5,7.888841806138017E-4
80,199.4573185298047,9.81526139305087E-6,7.986994420068526E-4
81,199.44828462392587,9.697827390934344E-6,8.083972693977869E-4
82,199.43896106061572,9.724096085861124E-6,8.18121365483648E-4
83,199.43072946694468,9.732864920589935E-6,8.278542304042379E-4
84,199.42198338817894,9.709644633472153E-6,8.375638750377101E-4
85,199.4130199840609,9.934244022784989E-6,8.474981190604951E-4
86,199.4037173534011,9.84537901082668E-6,8.573434980713218E-4
87,199.3936616188304,1.0370615662155724E-5,8.677141137334775E-4
88,199.38349844690728,1.0092052356253453E-5,8.778061660897309E-4
89,199.37315571701757,1.0220089017643224E-5,8.880262551073741E-4
90,199.362463319608,1.0463857660904549E-5,8.984901127682787E-4
91,199.35160653667563,1.068156632423824E-5,9.09171679092517E-4
92,199.3413766413046,1.0697000943535148E-5,9.198686800360521E-4
93,199.3302104814206,1.0923492280405632E-5,9.307921723164577E-4
94,199.3189611508155,1.0976153932746942E-5,9.417683262492047E-4
95,199.30792996867427,1.0721506301078507E-5,9.524898325502832E-4
96,199.29655885152786,1.0784663147518732E-5,9.632744956978019E-4
97,199.28556122782945,1.081579104435285E-5,9.740902867421547E-4
98,199.2736149679371,1.0681020826782786E-5,9.847713075689375E-4
99,199.26198390126817,1.0239434934892641E-5,9.9501074250383E-4
100,199.2507155055937,1.0337575833821352E-5,0.0010053483183376515
101,199.24026614360204,1.0538134803083994E-5,0.0010158864531407356
102,199.2311821923466,1.0421639098203123E-5,0.0010263080922389388
103,199.2220840806024,1.0032969784159208E-5,0.001036341062023098
104,199.2129652741265,1.011255781116896E-5,0.001046453619834267
105,199.2026133566253,9.970999282077866E-6,0.0010564246191163448
106,199.1918053644688,9.776979462191765E-6,0.0010662015985785365
107,199.18073784471315,9.817363676261873E-6,0.0010760189622547984
108,199.16880039959057,9.799165696422117E-6,0.0010858181279512205
109,199.1566797645808,9.831807997052146E-6,0.0010956499359482726
110,199.14383288474139,9.645782296106446E-6,0.0011052957182443792
111,199.1313090980479,9.68730153299499E-6,0.0011149830197773741
112,199.1199721173977,9.318425179910613E-6,0.0011243014449572846
113,199.10847028296638,9.361059985458533E-6,0.0011336625049427431
114,199.09740197735937,9.38094688932172E-6,0.0011430434518320649
115,199.0855593091026,9.555484706136353E-6,0.0011525989365382013
116,199.0740016382664,9.464851720292692E-6,0.001162063788258494
117,199.06251916489896,9.424365384737555E-6,0.0011714881536432314
118,199.05092206821206,9.141603968741938E-6,0.0011806297576119735
119,199.0391626318721,9.264941972528587E-6,0.001189894699584502
120,199.02812660931716,9.325823394231908E-6,0.0011992205229787339
121,199.01759874307135,9.253374068230956E-6,0.0012084738970469648
122,199.0063656423769,9.284993203038992E-6,0.0012177588902500037
123,198.99431604418263,9.40679912290173E-6,0.0012271656893729054
124,198.98233627331098,9.35665456735504E-6,0.0012365223439402605
125,198.9697313828122,9.750177553539174E-6,0.0012462725214937996
126,198.9555892302424,9.996341228539725E-6,0.0012562688627223394
127,198.94191160003885,1.017996422278203E-5,0.0012664488269451214
128,198.92809199864348,9.98253930876107E-6,0.0012764313662538824
129,198.91489658449603,9.925648598348695E-6,0.0012863570148522311
130,198.90050970199488,1.0052576253603784E-5,0.001296409591105835
131,198.88664127278986,1.0125448476571247E-5,0.0013065350395824063
132,198.87278465032892,9.952787671823742E-6,0.00131648782725423
133,198.85882973806633,1.0027022873272975E-5,0.001326514850127503
134,198.8447248504271,9.882558966151381E-6,0.0013363974090936546
135,198.8312112218266,9.554520937029787E-6,0.0013459519300306844
136,198.81770128836192,9.829753092133297E-6,0.0013557816831228178
137,198.80376394349065,9.864760269763368E-6,0.0013656464433925812
138,198.79041571656046,9.705824952437937E-6,0.0013753522683450192
139,198.77677787834014,9.712355126197195E-6,0.0013850646234712164
140,198.76204704772908,9.80481557984353E-6,0.0013948694390510598
141,198.7472739139381,9.67519827828864E-6,0.0014045446373293483
142,198.73226312629893,9.92239353965038E-6,0.0014144670308689987
143,198.71839817169345,9.44408947564851E-6,0.0014239111203446472
144,198.70327026180706,9.406290735685128E-6,0.0014333174110803322
145,198.68709754972608,9.418180834500029E-6,0.0014427355919148324
146,198.67077931495047,9.789057514562495E-6,0.0014525246494293948
147,198.6551324930223,9.812922871461446E-6,0.0014623375723008562
148,198.63941427229875,9.763295275077922E-6,0.0014721008675759341
149,198.62378840852742,9.988920702919648E-6,0.0014820897882788537
150,198.60928776901372,1.0022586006179127E-5,0.0014921123742850327
151,198.5941829564485,1.0113160651913284E-5,0.0015022255349369461
152,198.57800432012485,1.061195889891607E-5,0.0015128374938358621
153,198.56092911119185,1.0589525172566989E-5,0.001523427019008429
154,198.544007261365,1.0426940275143465E-5,0.0015338539592835727
155,198.526960560815,1.0229310423802055E-5,0.0015440832697073746
156,198.51043532178645,9.979121321396392E-6,0.001554062391028771
157,198.49413278934392,9.760859677829046E-6,0.0015638232507066
158,198.47776709481275,9.814677000848568E-6,0.0015736379277074485
159,198.46092981339027,9.989886790196512E-6,0.001583627814497645
160,198.44432118678043,9.645335218541229E-6,0.0015932731497161864
161,198.42703018269503,9.822087935011124E-6,0.0016030952376511975
162,198.4091722698051,9.717397405643517E-6,0.001612812635056841
163,198.3915208551763,9.654599288509479E-6,0.0016224672343453505
164,198.37182489404236,9.99350170892382E-6,0.0016324607360542742
165,198.3514913636771,1.0208179882228516E-5,0.0016426689159365028
166,198.3304062936267,1.0355929472445104E-5,0.0016530248454089478
167,198.31023827777906,1.0254596518859303E-5,0.0016632794419278072
168,198.2911616236161,9.989464094149787E-6,0.001673268906021957
169,198.2719208856944,9.950742897844722E-6,0.0016832196489198017
170,198.25263822188933,9.930331383451599E-6,0.0016931499803032532
171,198.2335732996313,9.925869844006078E-6,0.0017030758501472593
172,198.21418222743523,1.0010459284757994E-5,0.0017130863094320173
173,198.19482953510484,9.826497275998915E-6,0.0017229128067080162
174,198.17420363357644,1.0083001881608974E-5,0.0017329958085896251
175,198.15450952506896,1.0115465177183462E-5,0.0017431112737668086
176,198.1355727974458,9.992489574543706E-6,0.0017531037633413524
177,198.11766752020554,9.819991228796113E-6,0.0017629237545701486
178,198.09991831020275,9.775215932011206E-6,0.0017726989705021598
179,198.08221931292218,9.554454100180303E-6,0.0017822534246023402
180,198.06477654898057,9.60857469615838E-6,0.0017918619992984986
181,198.04638164284114,9.539146365114808E-6,0.0018014011456636133
182,198.0286590939526,9.430070380983926E-6,0.0018108312160445973
183,198.01076948186125,9.575392022682063E-6,0.0018204066080672794
184,197.9935721182498,9.580145663712525E-6,0.001829986753730992
185,197.97669615033988,9.28168394849829E-6,0.0018392684376794901
186,197.96033373563276,9.358125534642076E-6,0.0018486265632141321
187,197.94333242415794,9.335209972186878E-6,0.001857961773186319
188,197.9261627421748,9.29285975303386E-6,0.0018672546329393529
189,197.90860198184885,9.414779977424497E-6,0.0018766694129167775
190,197.89110567977522,9.385890674882264E-6,0.0018860553035916598
191,197.87368135318343,9.562805232163274E-6,0.0018956181088238232
192,197.8560903482881,9.609442523488426E-6,0.0019052275513473116
193,197.83765155376815,9.701002923557618E-6,0.0019149285542708692
194,197.81942507103972,1.0020997225788383E-5,0.0019249495514966576
195,197.80132764698382,1.0045727860682715E-5,0.0019349952793573403
196,197.78247500491187,1.0118878123909296E-5,0.0019451141574812496
197,197.763817466594,9.9205466550588E-6,0.0019550347041363083
198,197.74455255331483,9.638615792804003E-6,0.0019646733199291124
199,197.72500409441577,1.0022069589221192E-5,0.0019746953895183337
200,197.70490984571086,1.0009717162868218E-5,0.001984705106681202
201,197.6866865847744,9.709409602058029E-6,0.00199441451628326
202,197.66686136710794,9.884243836065368E-6,0.0020042987601193254
203,197.64733623923078,9.756628162811478E-6,0.0020140553882821367
204,197.62803486994926,9.750790072880579E-6,0.0020238061783550173
205,197.6092190621906,9.455916634263738E-6,0.0020332620949892813
206,197.5888706609561,9.678045226178948E-6,0.0020429401402154604
207,197.5701819989306,9.8831009930798E-6,0.00205282324120854
208,197.55117909798935,1.0062818531703439E-5,0.0020628860597402435
209,197.53304846561994,1.0138099693824864E-5,0.0020730241594340685
210,197.5143929700037,1.0357406461909941E-5,0.0020833815658959785
211,197.4959908391049,1.0072749830078993E-5,0.0020934543157260575
212,197.47879686942548,9.712472163698755E-6,0.002103166787889756
213,197.4622221818307,1.0109158356864195E-5,0.00211327594624662
214,197.4463774061089,1.0373194139008333E-5,0.0021236491403856285
215,197.4302143903886,1.038549993042182E-5,0.00213403464031605
216,197.41368240961998,1.029335524319332E-5,0.0021443279955592432
217,197.39458681272117,1.0328131770200171E-5,0.0021546561273294434
218,197.37520159483245,1.002112155601751E-5,0.002164677248885461
219,197.3561016727476,9.970399513050256E-6,0.0021746476483985116
220,197.33586104990997,1.0026725684986912E-5,0.0021846743740834983
221,197.31762327267396,1.0092401542254765E-5,0.002194766775625753
222,197.29886415764898,9.889497122179291E-6,0.0022046562727479325
223,197.28059442438095,9.91700781589636E-6,0.0022145732805638287
224,197.2624624865615,9.87858829348064E-6,0.0022244518688573096
225,197.24324699389345,9.890558329772518E-6,0.002234342427187082
226,197.22378845745737,9.772300307517178E-6,0.002244114727494599
227,197.2030267658902,9.68113670271452E-6,0.0022537958641973134
228,197.1822882985064,9.559079378297263E-6,0.002263354943575611
229,197.1607146232915,9.600206505197516E-6,0.0022729551500808086
230,197.1397655104877,9.477296404610557E-6,0.002282432446485419
231,197.11840797798197,9.774308261458846E-6,0.002292206754746878
232,197.09645432620144,9.608759869098035E-6,0.002301815514615976
233,197.07396531590268,9.682654612835223E-6,0.0023114981692288115
234,197.05122808910195,9.73565607038717E-6,0.0023212338252991986
235,197.02973049201893,9.661163814022285E-6,0.002330894989113221
236,197.00911202919121,9.363161982309253E-6,0.00234025815109553
237,196.98890499993394,9.342276538122174E-6,0.0023496004276336523
238,196.96788291045152,9.461815918938974E-6,0.002359062243552591
239,196.9479016124167,9.24130338177684E-6,0.002368303546934368
240,196.92844305529928,8.899495616579982E-6,0.002377203042550948
241,196.90986093231317,8.96766369032854E-6,0.002386170706241277
242,196.89131395784526,9.005498079975924E-6,0.002395176204321253
243,196.87440397575995,9.033359500156535E-6,0.0024042095638214093
244,196.8585412425109,9.005218392831547E-6,0.0024132147822142408
245,196.84225588233167,9.08075678369374E-6,0.0024222955389979345
246,196.8249287793145,9.416850992474408E-6,0.002431712389990409
247,196.80660822392335,9.567495947215907E-6,0.0024412798859376247
248,196.78912286355373,9.294720356890394E-6,0.002450574606294515
249,196.77288065623608,9.130682962134057E-6,0.002459705289256649
250,196.7568897567789,9.226159898906498E-6,0.0024689314491555554
251,196.73943590299822,9.336590760144227E-6,0.0024782680399156997
252,196.72202330540495,9.414478571377775E-6,0.0024876825184870777
253,196.70425743633655,9.266893750989977E-6,0.0024969494122380675
254,196.68720189775948,9.423910768322953E-6,0.0025063733230063904
255,196.670584111745,9.30781027896637E-6,0.002515681133285357
256,196.6542123865161,9.169528926568002E-6,0.002524850662211925
257,196.63706284691085,9.14893479019718E-6,0.002533999597002122
258,196.61906248510414,9.253569549705622E-6,0.0025432531665518275
259,196.59999563440877,9.038446288823202E-6,0.0025522916128406506
260,196.581845536217,9.228129163275872E-6,0.0025615197420039266
261,196.5652024954948,9.02289315604063E-6,0.002570542635159967
262,196.55086206263795,9.134208010442129E-6,0.0025796768431704093
263,196.53637705970988,9.255661477143185E-6,0.0025889325046475524
264,196.52210675334834,9.541226405019673E-6,0.0025984737310525722
265,196.50715572000905,9.735771052714899E-6,0.0026082095021052873
266,196.4930035495158,9.43266062640378E-6,0.002617642162731691
267,196.47885970617133,9.575591384291724E-6,0.0026272177541159826
268,196.4650691467385,9.342145941918531E-6,0.002636559900057901
269,196.45048108332574,9.361699786729676E-6,0.002645921599844631
270,196.43538370650919,9.168504887121553E-6,0.0026550901047317525
271,196.42037742916844,9.092240664695157E-6,0.0026641823453964477
272,196.40314650251753,9.255526012012263E-6,0.00267343787140846
273,196.38476971633972,9.217295169133838E-6,0.0026826551665775937
274,196.36700398718,9.233843559638255E-6,0.002691889010137232
275,196.34927843422497,9.250602034064793E-6,0.0027011396121712967
276,196.3331960904643,9.290120234240086E-6,0.0027104297324055367
277,196.3176960193119,9.384353692534769E-6,0.0027198140860980715
278,196.30186070171473,9.343833688553583E-6,0.002729157919786625
279,196.28568396553985,9.471463077018681E-6,0.002738629382863644
280,196.2687442667973,9.432917109403865E-6,0.0027480622999730476
281,196.25115143228243,9.359046120552772E-6,0.0027574213460936003
282,196.23348123281326,9.096307746240138E-6,0.0027665176538398404
283,196.21615537356826,9.191287078030316E-6,0.0027757089409178705
284,196.1999043483143,9.378793847278505E-6,0.0027850877347651492
285,196.18189140396078,9.499883881096129E-6,0.002794587618646245
286,196.16383117490057,9.50135993994517E-6,0.0028040889785861905
287,196.146061821927,9.575243942328022E-6,0.0028136642225285186
288,196.13024375898135,9.34080578364632E-6,0.002823005028312165
289,196.11507588135345,9.292289204927784E-6,0.002832297317517093
290,196.0991971110794,9.398835281006893E-6,0.0028416961527981
291,196.0842024168154,9.412065641589999E-6,0.00285110821843969
292,196.06904324078937,9.454072578596248E-6,0.0028605622910182864
293,196.05437311954634,9.389839281412381E-6,0.002869952130299699
294,196.04018184934495,9.495372408178386E-6,0.0028794475027078773
295,196.02513485715235,9.792956732712806E-6,0.00288924045944059
296,196.0104769168386,9.704533984913806E-6,0.002898944993425504
297,195.99396620224388,9.876186929585673E-6,0.0029088211803550896
298,195.97761042816674,9.744005421627023E-6,0.0029185651857767166
299,195.96186207029655,9.578976229360393E-6,0.002928144162006077
300,195.94834017422326,9.45232094597147E-6,0.0029375964829520484
301,195.9358363669662,9.63479143993246E-6,0.0029472312743919807
302,195.92264954752983,9.365189101597795E-6,0.0029565964634935787
303,195.91010642052706,9.417978740956821E-6,0.0029660144422345353
304,195.89793810684682,9.255243871861018E-6,0.0029752696861063965
305,195.8857346944126,9.270007228582959E-6,0.0029845396933349793
306,195.87344523872468,9.166378217086098E-6,0.0029937060715520655
307,195.86096726295375,9.148622281261293E-6,0.003002854693833327
