#t,ESS,tempDiff,temp
0,200.00000000000065,0.0,0.0
1,199.99980000000005,7.108154893200939E-6,7.108154893200939E-6
2,199.99920375568306,7.020536182405882E-6,1.4128691075606821E-5
3,199.99821174301994,7.108499892742268E-6,2.123719096834909E-5
4,199.99683348727237,7.091577025258174E-6,2.8328767993607264E-5
5,199.99507030910468,7.145648901383649E-6,3.5474416894990913E-5
6,199.99293163765148,7.097527960187961E-6,4.2571944855178875E-5
7,199.99041037629402,7.199772978631974E-6,4.977171783381085E-5
8,199.98752165292237,7.163800561445761E-6,5.693551839525661E-5
9,199.98426409532917,7.1121563123894405E-6,6.404767470764605E-5
10,199.98062637208574,7.232539872724656E-6,7.12802145803707E-5
11,199.97662106380466,7.245361605801872E-6,7.852557618617258E-5
12,199.9722311967556,7.1733143407431955E-6,8.569889052691578E-5
13,199.96748803047453,7.216102779703095E-6,9.291499330661887E-5
14,199.96238120844293,7.192101129398359E-6,1.0010709443601723E-4
15,199.95696007072624,7.096927456861043E-6,1.0720402189287827E-4
16,199.95117147521643,7.124815420216592E-6,1.1432883731309486E-4
17,199.94503550453143,7.155375704274609E-6,1.2148421301736947E-4
18,199.93854104611898,7.01315300154299E-6,1.2849736601891246E-4
19,199.93166365288255,6.979203401777443E-6,1.354765694206899E-4
20,199.92445288225449,7.028092487791977E-6,1.4250466190848189E-4
21,199.91686986418816,6.901877551367309E-6,1.494065394598492E-4
22,199.9089009397061,6.8273580448926795E-6,1.562338975047419E-4
23,199.90059929086047,6.77932418340087E-6,1.6301322168814277E-4
24,199.89196786191977,6.830299969605544E-6,1.698435216577483E-4
25,199.88294710322108,6.9351991447391205E-6,1.7677872080248743E-4
26,199.87357818396563,6.968789315558001E-6,1.8374751011804543E-4
27,199.86389800835155,6.923380266619499E-6,1.9067089038466494E-4
28,199.8539281382385,6.940997568235575E-6,1.9761188795290051E-4
29,199.84354234151238,6.861686848254595E-6,2.044735748011551E-4
30,199.8329734867731,6.827708730650723E-6,2.113012835318058E-4
31,199.82204535086677,6.847331097267166E-6,2.1814861462907296E-4
32,199.81077351435312,6.945456568433078E-6,2.2509407119750604E-4
33,199.7991309597882,6.975401990164869E-6,2.320694731876709E-4
34,199.78719775693634,6.917762147711781E-6,2.3898723533538269E-4
35,199.7750649100083,6.860129570219634E-6,2.458473649056023E-4
36,199.76253152916607,6.823769125929518E-6,2.5267113403153185E-4
37,199.74964470212544,6.795550935241439E-6,2.5946668496677327E-4
38,199.73643724470497,6.808345159842794E-6,2.6627503012661605E-4
39,199.72293121775866,6.8764910676438535E-6,2.731515211942599E-4
40,199.70913146870038,6.8436876633629325E-6,2.799952088576228E-4
41,199.69513765280914,6.8698915052246485E-6,2.8686510036284745E-4
42,199.68097539705977,6.754425484623871E-6,2.936195258474713E-4
43,199.66639813237566,6.682825775352855E-6,3.003023516228242E-4
44,199.6515473453482,6.7130240744818955E-6,3.0701537569730606E-4
45,199.63642692480548,6.725620052415679E-6,3.1374099574972173E-4
46,199.62113879624587,6.716170151582905E-6,3.2045716590130464E-4
47,199.60558954350856,6.727308049388089E-6,3.271844739506927E-4
48,199.5897784592711,6.732969827004451E-6,3.339174437776972E-4
49,199.57365565402114,6.8361477765376365E-6,3.407535915542348E-4
50,199.5572594129563,6.9250741804482125E-6,3.47678665734683E-4
51,199.54070462530578,6.858766019430179E-6,3.545374317541132E-4
52,199.52382385643352,6.84047196351681E-6,3.6137790371763E-4
53,199.50700090260403,6.8125699892618315E-6,3.681904737068918E-4
54,199.48983409954738,6.8724515646597505E-6,3.7506292527155155E-4
55,199.47261054471662,6.914720928482058E-6,3.819776462000336E-4
56,199.45511781084974,6.920200807763197E-6,3.888978470077968E-4
57,199.43751028335032,6.877071355266771E-6,3.957749183630636E-4
58,199.41978350618896,6.773415781782783E-6,4.0254833414484636E-4
59,199.40161705125507,6.730554483245964E-6,4.0927888862809234E-4
60,199.38298202551692,6.665081749983452E-6,4.159439703780758E-4
61,199.36419077975899,6.734837834874412E-6,4.226788082129502E-4
62,199.34517376719555,6.736707101924062E-6,4.2941551531487426E-4
63,199.32590369101993,6.727704657630478E-6,4.3614321997250473E-4
64,199.30631118058741,6.591369613955972E-6,4.4273458958646073E-4
65,199.28680242757454,6.691820657441293E-6,4.49426410243902E-4
66,199.26693267749565,6.72586172447409E-6,4.561522719683761E-4
67,199.24718158675677,6.67156705037105E-6,4.628238390187471E-4
68,199.22693030766717,6.725204088428455E-6,4.695490431071756E-4
69,199.20659136861437,6.852047460808933E-6,4.7640109056798453E-4
70,199.18593680704157,6.8898651111125665E-6,4.832909556790971E-4
71,199.1652693871123,6.8654478083768205E-6,4.90156403487474E-4
72,199.14440265162503,6.928364113440896E-6,4.970847676009149E-4
73,199.1234984535399,6.8143444753182224E-6,5.038991120762331E-4
74,199.10245307298734,6.893137505237574E-6,5.107922495814707E-4
75,199.08112143685054,6.848937764324525E-6,5.176411873457951E-4
76,199.05969741151938,6.951804387639212E-6,5.245929917334344E-4
77,199.0380663409353,6.956752770783347E-6,5.315497445042177E-4
78,199.01621763341964,6.997090540140352E-6,5.385468350443581E-4
79,198.99392761335534,6.954681159799773E-6,5.455015162041579E-4
80,198.971224488073,6.873743916333903E-6,5.523752601204918E-4
81,198.94815438895083,6.896322745767674E-6,5.592715828662595E-4
82,198.92489921053607,6.911312324506851E-6,5.661828951907663E-4
83,198.90147810473005,6.923069768597747E-6,5.73105964959364E-4
84,198.877846891701,6.953464224471708E-6,5.800594291838357E-4
85,198.85404262928748,6.850456146665895E-6,5.869098853305016E-4
86,198.82989241502293,6.76737315588067E-6,5.936772584863822E-4
87,198.80539104659195,6.802087681456257E-6,6.004793461678384E-4
88,198.78069103242225,6.881685286820468E-6,6.073610314546589E-4
89,198.75607973935016,6.933126740552854E-6,6.142941581952117E-4
90,198.73115488389575,6.918354471397357E-6,6.212125126666091E-4
91,198.70583396154623,6.899016997705734E-6,6.281115296643149E-4
92,198.6806353528695,7.1614994406249846E-6,6.352730291049399E-4
93,198.65501962443466,7.153712763420124E-6,6.4242674186836E-4
94,198.6290261207464,7.092056754438785E-6,6.495187986227988E-4
95,198.60279041089896,7.146350336454118E-6,6.56665148959253E-4
96,198.5765238579794,7.152562889226128E-6,6.638177118484791E-4
97,198.5499067150096,7.107459444397264E-6,6.709251712928763E-4
98,198.5228757747025,7.040731771047992E-6,6.779659030639243E-4
99,198.4956826858356,7.153280929819134E-6,6.851191839937434E-4
100,198.4684656886123,7.056108480143121E-6,6.921752924738865E-4
101,198.44076101328437,6.950298142148005E-6,6.991255906160346E-4
102,198.4130509722593,6.9978702119164735E-6,7.06123460827951E-4
103,198.38499486724427,7.040279185297969E-6,7.13163740013249E-4
104,198.3566716381854,7.053552433246816E-6,7.202172924464958E-4
105,198.32805089199599,7.12015021801705E-6,7.273374426645129E-4
106,198.29956454281472,7.174692434015719E-6,7.345121350985286E-4
107,198.27113277395534,7.246259457049137E-6,7.417583945555777E-4
108,198.2426744636625,7.139059788684781E-6,7.488974543442625E-4
109,198.21380040943498,7.115525303179395E-6,7.560129796474419E-4
110,198.18492371761516,7.1021348636389696E-6,7.631151145110808E-4
111,198.15567607444993,7.155144447925342E-6,7.702702589590061E-4
112,198.12627541061872,7.079110887311631E-6,7.773493698463177E-4
113,198.09664546481514,7.052465913009578E-6,7.844018357593273E-4
114,198.06667726286187,7.060621928718289E-6,7.914624576880456E-4
115,198.0363893044255,7.101233470436603E-6,7.985636911584822E-4
116,198.00566265673604,7.084810742180815E-6,8.05648501900663E-4
117,197.97487077907445,6.993049690122223E-6,8.126415515907852E-4
118,197.94335475392148,6.979025763111159E-6,8.196205773538964E-4
119,197.91154998102388,6.899571219751401E-6,8.265201485736478E-4
120,197.87937740472623,6.9653686806436884E-6,8.334855172542915E-4
121,197.8468672435327,6.8787432763345515E-6,8.403642605306261E-4
122,197.81446171904437,6.892475484170972E-6,8.472567360147971E-4
123,197.78228413962552,6.917875897296013E-6,8.541746119120931E-4
124,197.74985132540039,6.836081743704302E-6,8.610106936557975E-4
125,197.7175498534755,6.744350614206855E-6,8.677550442700043E-4
126,197.6853132085623,6.670388531867467E-6,8.744254328018718E-4
127,197.65265492491858,6.649248762784975E-6,8.810746815646567E-4
128,197.61967303169698,6.626567221248499E-6,8.877012487859053E-4
129,197.5869332274035,6.56163708175458E-6,8.942628858676599E-4
130,197.55413358801337,6.500697663416899E-6,9.007635835310768E-4
131,197.52085586069936,6.45735885474748E-6,9.072209423858242E-4
132,197.48729221230687,6.548526111716911E-6,9.137694684975411E-4
133,197.45372779372425,6.553277550302903E-6,9.203227460478441E-4
134,197.4200504553121,6.480884191495432E-6,9.268036302393395E-4
135,197.38654749221328,6.4501119363154E-6,9.332537421756549E-4
136,197.35351514622846,6.402790719347311E-6,9.396565328950022E-4
137,197.32008131132443,6.408165144948202E-6,9.460646980399504E-4
138,197.2867004796811,6.398137715708673E-6,9.524628357556591E-4
139,197.2529881615181,6.424331555318151E-6,9.588871673109772E-4
140,197.21926641807025,6.4448245595812056E-6,9.653319918705584E-4
141,197.1856648491989,6.397462540256068E-6,9.717294544108145E-4
142,197.15221074438756,6.445289442698685E-6,9.781747438535131E-4
143,197.11909751579708,6.538579865948306E-6,9.847133237194615E-4
144,197.0861524379456,6.5440893543208975E-6,9.912574130737824E-4
145,197.0528135569186,6.4702221514363565E-6,9.977276352252187E-4
146,197.01920317382908,6.358679828941637E-6,0.0010040863150541602
147,196.9859260716564,6.446801351731804E-6,0.001010533116405892
148,196.9525876062309,6.4189370292613055E-6,0.0010169520534351532
149,196.9192973748542,6.320050776319642E-6,0.0010232721042114728
150,196.88574452212552,6.274880250130083E-6,0.0010295469844616028
151,196.8512935293054,6.328224137080114E-6,0.001035875208598683
152,196.81596719691422,6.412212145061303E-6,0.0010422874207437443
153,196.78085582357514,6.441514782723719E-6,0.001048728935526468
154,196.74488687822335,6.40583215117055E-6,0.0010551347676776386
155,196.70856368671983,6.4274329566428745E-6,0.0010615622006342814
156,196.67110504920134,6.513205386345546E-6,0.001068075406020627
157,196.63402195969513,6.5199771261083E-6,0.0010745953831467353
158,196.59654139055073,6.48722869056998E-6,0.0010810826118373053
159,196.55841833672878,6.50889724186889E-6,0.0010875915090791742
160,196.52009694461324,6.5192434704399E-6,0.0010941107525496141
161,196.48154955577562,6.571949116035067E-6,0.0011006827016656492
162,196.44310674525516,6.599335580460536E-6,0.0011072820372461096
163,196.40515776145745,6.683914449290774E-6,0.0011139659516954004
164,196.36669658852708,6.688574639665538E-6,0.001120654526335066
165,196.32804053425778,6.657573333709454E-6,0.0011273120996687755
166,196.2891857383626,6.717733679182808E-6,0.0011340298333479583
167,196.2499623663555,6.755649357763318E-6,0.0011407854827057216
168,196.21069237788336,6.909269206768941E-6,0.0011476947519124905
169,196.1713858559543,6.8637835591282836E-6,0.0011545585354716188
170,196.13206401387913,6.944212514212759E-6,0.0011615027479858315
171,196.0929965298436,6.9324284745860744E-6,0.0011684351764604177
172,196.0534976756631,6.989201913595454E-6,0.0011754243783740131
173,196.01365836435698,6.867234137801768E-6,0.001182291612511815
174,195.9736500413856,6.89179384569211E-6,0.001189183406357507
175,195.93344018893148,6.8282415942157994E-6,0.0011960116479517227
176,195.89344889023351,6.803926417738208E-6,0.001202815574369461
177,195.85280497564472,6.795805203063247E-6,0.0012096113795725242
178,195.8129323666034,6.870040580299729E-6,0.001216481420152824
179,195.77323699472743,6.876184067342301E-6,0.0012233576042201663
180,195.7333857429007,6.79444750035625E-6,0.0012301520517205226
181,195.69329045393647,6.7305085113026045E-6,0.0012368825602318253
182,195.6525188332991,6.764591090876058E-6,0.0012436471513227014
183,195.61094983253224,6.772435911636202E-6,0.0012504195872343376
184,195.56915424766808,6.851559999366551E-6,0.001257271147233704
185,195.52765842157524,6.942641533246515E-6,0.0012642137887669506
186,195.48547821557744,6.806901069659289E-6,0.0012710206898366098
187,195.44385790594592,6.738147131408626E-6,0.0012777588369680185
188,195.40277959313707,6.634821849015429E-6,0.001284393658817034
189,195.36218653693928,6.529407413947497E-6,0.0012909230662309814
190,195.3210538131583,6.589075429688196E-6,0.0012975121416606695
191,195.27960085170886,6.588141869474839E-6,0.0013041002835301443
192,195.23761743449293,6.578578600452516E-6,0.0013106788621305967
193,195.1960362496608,6.627645692661157E-6,0.001317306507823258
194,195.1547898008581,6.6384621313387615E-6,0.0013239449699545968
195,195.1135493938074,6.590329125818498E-6,0.0013305352990804153
196,195.07230295284998,6.52516700525608E-6,0.0013370604660856713
197,195.03100449825803,6.554743849424821E-6,0.001343615209935096
198,194.99025830403966,6.554590784466499E-6,0.0013501698007195625
199,194.94954955146144,6.499492628468019E-6,0.0013566692933480306
200,194.90854286559482,6.443275047613003E-6,0.0013631125683956436
201,194.86718442494887,6.538952495989388E-6,0.001369651520891633
202,194.82579387524717,6.571582640808034E-6,0.001376223103532441
203,194.78384221806047,6.565956789181638E-6,0.0013827890603216226
204,194.7422091188857,6.629396816846251E-6,0.001389418457138469
205,194.6996530952566,6.657483441904926E-6,0.0013960759405803739
206,194.65689619698855,6.654201866943927E-6,0.0014027301424473179
207,194.6138823136697,6.643427681610939E-6,0.0014093735701289289
208,194.5699674439386,6.583638033574913E-6,0.0014159572081625038
209,194.5253757323393,6.596168203276326E-6,0.0014225533763657801
210,194.4803222801642,6.6002203615450915E-6,0.0014291535967273252
211,194.43514617554214,6.609471734177243E-6,0.0014357630684615024
212,194.3897647565656,6.540974391329639E-6,0.001442304042852832
213,194.34357290855922,6.574929233764433E-6,0.0014488789720865963
214,194.29746863624152,6.6743370146263635E-6,0.0014555533091012228
215,194.2520203700709,6.670137589211076E-6,0.001462223446690434
216,194.2068203242897,6.633045162023881E-6,0.0014688564918524578
217,194.1616979105314,6.604189907328554E-6,0.0014754606817597863
218,194.11662345763838,6.6383826829585E-6,0.0014820990644427447
219,194.07149064891388,6.612733542618223E-6,0.0014887117979853629
220,194.02645852745422,6.5426512792739805E-6,0.001495254449264637
221,193.98173950653543,6.458509948370233E-6,0.001501712959213007
222,193.93635624931792,6.646323794902481E-6,0.0015083592830079096
223,193.89079393695738,6.652346381513878E-6,0.0015150116293894235
224,193.84479788920817,6.623727093092582E-6,0.0015216353564825162
225,193.79777142507794,6.6137828894981E-6,0.0015282491393720143
226,193.7502432853458,6.5453002824652055E-6,0.0015347944396544796
227,193.7027942969738,6.521123827605924E-6,0.0015413155634820856
228,193.65510207248676,6.497303966316873E-6,0.0015478128674484024
229,193.60664059842406,6.484475209936168E-6,0.0015542973426583386
230,193.558166237775,6.54010906695833E-6,0.001560837451725297
231,193.50986785501655,6.5594557684864655E-6,0.0015673969074937834
232,193.46236774123966,6.532202291861713E-6,0.0015739291097856452
233,193.4145315799969,6.498167655963799E-6,0.0015804272774416089
234,193.36634453328307,6.47710896646925E-6,0.0015869043864080782
235,193.31746934874369,6.3363164112223505E-6,0.0015932407028193005
236,193.26811214933974,6.359514155150068E-6,0.0015996002169744506
237,193.2192200107763,6.363059104381739E-6,0.0016059632760788323
238,193.16982734655545,6.472105910926662E-6,0.001612435381989759
239,193.1210128375,6.5071630889155554E-6,0.0016189425450786746
240,193.07160013096566,6.5015073100061765E-6,0.0016254440523886808
241,193.0223938985661,6.414635298245548E-6,0.0016318586876869264
242,192.9727390364288,6.4297968708390765E-6,0.0016382884845577656
243,192.92314146264582,6.525697317147339E-6,0.0016448141818749128
244,192.87365181702393,6.557753671937565E-6,0.0016513719355468503
245,192.8236396325673,6.497239306911457E-6,0.0016578691748537616
246,192.77383726099458,6.490555903793589E-6,0.0016643597307575552
247,192.7240438336769,6.4367886334485206E-6,0.0016707965193910037
248,192.67433430487156,6.421290116067092E-6,0.001677217809507071
249,192.6245195785127,6.514626340491498E-6,0.0016837324358475623
250,192.5744278093054,6.432341754431529E-6,0.001690164777601994
251,192.52381560318454,6.481827368043311E-6,0.0016966466049700372
252,192.4736699685071,6.510201636023864E-6,0.001703156806606061
253,192.42320546321312,6.6271144090724625E-6,0.0017097839210151334
254,192.37310197284265,6.80982625594424E-6,0.0017165937472710777
255,192.32344067498497,6.721123246514067E-6,0.0017233148705175917
256,192.27392172522914,6.7375350795184775E-6,0.00173005240559711
257,192.22496693244733,6.9322225885957976E-6,0.001736984628185706
258,192.17487997712215,6.9090543288899775E-6,0.0017438936825145959
259,192.12601450401,6.819666109911377E-6,0.0017507133486245072
260,192.07660925933203,6.852789948601954E-6,0.001757566138573109
261,192.02729303164665,6.767866900852034E-6,0.0017643340054739611
262,191.97768330044164,6.797407445684916E-6,0.001771131412919646
263,191.92771960578517,6.668515137709026E-6,0.001777799928057355
264,191.87660598234586,6.619894645170026E-6,0.001784419822702525
265,191.82507610608323,6.661364509528535E-6,0.0017910811872120535
266,191.77436337403358,6.461499884991496E-6,0.001797542687097045
267,191.72396760687283,6.501374472398245E-6,0.0018040440615694432
268,191.67347368766687,6.40675777587182E-6,0.001810450819345315
269,191.6223894595891,6.388443078121318E-6,0.0018168392624234363
270,191.5716256530344,6.436646137393225E-6,0.0018232759085608295
271,191.52045473720227,6.374942957548686E-6,0.001829650851518378
272,191.4698145261516,6.365737358739827E-6,0.0018360165888771179
273,191.42035079603343,6.4262990495419935E-6,0.0018424428879266598
274,191.3710654472472,6.473817210293196E-6,0.001848916705136953
275,191.3219828857782,6.45773442842668E-6,0.0018553744395653797
276,191.27244200272818,6.388670542164501E-6,0.0018617631101075442
277,191.22307152215598,6.406491219659647E-6,0.0018681696013272038
278,191.1742857188952,6.382045882271237E-6,0.001874551647209475
279,191.12462466976945,6.3409099137053044E-6,0.0018808925571231802
280,191.0738611467101,6.398894347213548E-6,0.0018872914514703938
281,191.02278144308417,6.323054295552635E-6,0.0018936145057659463
282,190.97213160050478,6.27683196831994E-6,0.0018998913377342662
283,190.92146017468392,6.247774553041368E-6,0.0019061391122873075
284,190.8713118298114,6.145252247322707E-6,0.0019122843645346303
285,190.82068179258815,6.168494690025352E-6,0.0019184528592246556
286,190.7710368514224,6.099651419285178E-6,0.0019245525106439407
287,190.72153045761615,6.073183514187818E-6,0.0019306256941581286
288,190.6712388518006,6.032967639817199E-6,0.0019366586617979458
289,190.62147156636664,6.008760689687513E-6,0.0019426674224876333
290,190.57163088673735,6.076859547995399E-6,0.0019487442820356287
291,190.52147209617087,6.125622779146713E-6,0.0019548699048147753
292,190.4704440151895,6.159372884727939E-6,0.001961029277699503
293,190.41989174308443,6.143829555766258E-6,0.0019671731072552693
294,190.36950447555475,6.226895011467176E-6,0.0019734000022667364
295,190.31938655822435,6.192991398912858E-6,0.0019795929936656494
296,190.26844509430214,6.172143340368863E-6,0.001985765137006018
297,190.2175731235705,6.197447594724787E-6,0.0019919625846007427
298,190.1669768643479,6.1551074520243125E-6,0.001998117692052767
299,190.11623152889024,6.204479133741687E-6,0.0020043221711865088
300,190.06564275876912,6.15908113466221E-6,0.002010481252321171
301,190.01474023740298,6.236612630707477E-6,0.0020167178649518787
302,189.9640658062023,6.185441262829046E-6,0.0020229033062147076
303,189.9134298032656,6.206010217365285E-6,0.0020291093164320727
304,189.86174200566884,6.287083214178075E-6,0.0020353963996462506
305,189.80968690646156,6.249112230295358E-6,0.002041645511876546
306,189.7580519086029,6.261379586828312E-6,0.002047906891463374
307,189.70744676630437,6.239758250958603E-6,0.0020541466497143324
