#t,ESS,tempDiff,temp
0,200.00000000000065,0.0,0.0
1,199.99979999999957,1.333295971632724E-5,1.333295971632724E-5
2,199.99921133130044,1.316904449094819E-5,2.650200420727543E-5
3,199.99825559268385,1.2764540450302861E-5,3.926654465757829E-5
4,199.9969279031299,1.2704498560056512E-5,5.19710432176348E-5
5,199.99529079670606,1.2263565209521626E-5,6.423460842715643E-5
6,199.99331348497617,1.2146622169533006E-5,7.638123059668943E-5
7,199.99100909715284,1.2000988465678487E-5,8.838221906236792E-5
8,199.9883921762033,1.18114634353071E-5,1.0019368249767501E-4
9,199.98546955167208,1.2174115239339693E-5,1.123677977370147E-4
10,199.9822366821516,1.2306178401863705E-5,1.2467397613887842E-4
11,199.97867386897929,1.2105189320446881E-5,1.367791654593253E-4
12,199.97481811748338,1.2251255178503657E-5,1.4903042063782896E-4
13,199.97066398684782,1.2069492565206946E-5,1.610999132030359E-4
14,199.9663950577419,1.179929821873276E-5,1.7289921142176864E-4
15,199.96181129590033,1.1900417186508293E-5,1.8479962860827693E-4
16,199.95700203828292,1.2161745881694195E-5,1.9696137448997112E-4
17,199.951901328454,1.2554833812181744E-5,2.0951620830215287E-4
18,199.9465452452226,1.2833032567105548E-5,2.2234924086925843E-4
19,199.94091307559975,1.2884251300542217E-5,2.3523349216980063E-4
20,199.93495944877805,1.3189744799099836E-5,2.4842323696890045E-4
21,199.92885747759436,1.3229004566106313E-5,2.6165224153500675E-4
22,199.92262794543538,1.3154405250621627E-5,2.7480664678562836E-4
23,199.916181599302,1.2882967548500093E-5,2.876896143341285E-4
24,199.90944631188955,1.283656837013039E-5,3.0052618270425886E-4
25,199.90236083014042,1.3105167908401424E-5,3.136313506126603E-4
26,199.8951707507351,1.3251691460253144E-5,3.2688304207291344E-4
27,199.8879821607594,1.2683839915542882E-5,3.395668819884563E-4
28,199.88055587870247,1.2639342223484084E-5,3.522062242119404E-4
29,199.87291054468645,1.2842574329345175E-5,3.650487985412856E-4
30,199.86521290064894,1.3429918116868105E-5,3.784787166581537E-4
31,199.8574507717457,1.3002629560348479E-5,3.9148134621850217E-4
32,199.84940064212358,1.3024047263074687E-5,4.0450539348157685E-4
33,199.84133998630202,1.3193313010279822E-5,4.1769870649185665E-4
34,199.83287380921288,1.3298380358045045E-5,4.309970868499017E-4
35,199.82431475236413,1.3370056359765209E-5,4.443671432096669E-4
36,199.81562036510073,1.3289507266937568E-5,4.576566504766045E-4
37,199.8066548762656,1.3423355092004332E-5,4.7108000556860886E-4
38,199.79754587518016,1.3246650041930622E-5,4.843266556105395E-4
39,199.7883995991136,1.3068833622620992E-5,4.973954892331605E-4
40,199.77896981911036,1.2887077182170254E-5,5.102825664153307E-4
41,199.76969302494996,1.2984321249953544E-5,5.232668876652843E-4
42,199.76026117985464,1.2906029597638791E-5,5.361729172629231E-4
43,199.75072399753762,1.3139739868785288E-5,5.493126571317084E-4
44,199.7411087966936,1.3124178259510677E-5,5.62436835391219E-4
45,199.73103322732044,1.3125420709835888E-5,5.755622561010549E-4
46,199.72083627403725,1.3504800758320559E-5,5.890670568593755E-4
47,199.71030649267445,1.3580518411905401E-5,6.026475752712809E-4
48,199.69974738962833,1.3372484080397085E-5,6.16020059351678E-4
49,199.68926909614305,1.358274390893753E-5,6.296028032606155E-4
50,199.67858325922532,1.3914305180561963E-5,6.435171084411775E-4
51,199.66757073413106,1.3897998042288966E-5,6.574151064834664E-4
52,199.65647435168182,1.3724715301965511E-5,6.71139821785432E-4
53,199.64529205591938,1.4154874973332756E-5,6.852946967587648E-4
54,199.63395172499656,1.3739352951816504E-5,6.990340497105812E-4
55,199.62273509050885,1.4071397265797574E-5,7.131054469763788E-4
56,199.61128865463118,1.4123007586548301E-5,7.27228454562927E-4
57,199.6001591071911,1.4361895189490527E-5,7.415903497524175E-4
58,199.5897287936182,1.4571734772179354E-5,7.561620845245969E-4
59,199.57952128951896,1.4469152309105178E-5,7.70631236833702E-4
60,199.56943543694356,1.3972615355516677E-5,7.846038521892186E-4
61,199.55957083997157,1.4285374642173788E-5,7.988892268313924E-4
62,199.5498013456609,1.4059751732398142E-5,8.129489785637906E-4
63,199.53978057361894,1.3882247199148533E-5,8.268312257629391E-4
64,199.52871409042248,1.377970971379393E-5,8.406109354767331E-4
65,199.51762907246533,1.4031274611554762E-5,8.546422100882879E-4
66,199.5065271967542,1.3525640677816892E-5,8.681678507661048E-4
67,199.49510673686856,1.3592756252330208E-5,8.81760607018435E-4
68,199.48376162269213,1.3171144354447361E-5,8.949317513728823E-4
69,199.47231544469082,1.358608151561351E-5,9.085178328884958E-4
70,199.46084016211884,1.3561227021756684E-5,9.220790599102525E-4
71,199.44898155004051,1.3622021098751362E-5,9.357010810090038E-4
72,199.43663332498332,1.3813071716662355E-5,9.495141527256661E-4
73,199.4246213816313,1.3809303103202288E-5,9.633234558288684E-4
74,199.4126378335843,1.3274466561781451E-5,9.765979223906498E-4
75,199.40048767008886,1.3288229384572056E-5,9.898861517752219E-4
76,199.38839324003837,1.3296668969579306E-5,0.0010031828207448011
77,199.37591240977287,1.3067735285795204E-5,0.0010162505560305964
78,199.36325861530233,1.3073268407657924E-5,0.0010293238244382544
79,199.35092773465533,1.2553242358909398E-5,0.0010418770667971638
80,199.3385562687503,1.2687223271552534E-5,0.0010545642900687162
81,199.32586980629497,1.274452612648214E-5,0.0010673088161951983
82,199.3134555765992,1.252483766310628E-5,0.0010798336538583046
83,199.30137163823622,1.2590756779285947E-5,0.0010924244106375906
84,199.28934970359862,1.2205640864756297E-5,0.001104630051502347
85,199.27719870487152,1.2179890075145256E-5,0.0011168099415774923
86,199.26522539262064,1.2227014301697171E-5,0.0011290369558791895
87,199.25318551587984,1.250457927932429E-5,0.001141541535158514
88,199.24152657287377,1.2644556700203998E-5,0.0011541860918587179
89,199.2297789308151,1.2993951005059923E-5,0.0011671800428637777
90,199.21838171788065,1.2888712883841794E-5,0.0011800687557476195
91,199.2071332979609,1.2966811717097107E-5,0.0011930355674647166
92,199.19488528494216,1.3368630159319377E-5,0.001206404197624036
93,199.18256419189626,1.3285140607907722E-5,0.0012196893382319437
94,199.17094345393096,1.338019776930206E-5,0.0012330695360012458
95,199.15902387988933,1.334995940910078E-5,0.0012464194954103466
96,199.1474006705368,1.3018810298970752E-5,0.0012594383057093173
97,199.13503436058951,1.3076050863014379E-5,0.0012725143565723318
98,199.12318534625052,1.3009866702631E-5,0.0012855242232749627
99,199.11088487857256,1.3069804427750289E-5,0.0012985940277027129
100,199.0989653314528,1.2831446950665573E-5,0.0013114254746533784
101,199.08755263941387,1.2888706513895635E-5,0.001324314181167274
102,199.07522075060726,1.2811694294818044E-5,0.001337125875462092
103,199.06235860479794,1.2845807760522088E-5,0.001349971683222614
104,199.05002264683532,1.2620546282217063E-5,0.001362592229504831
105,199.03739960237482,1.2313242793416029E-5,0.001374905472298247
106,199.0243886486087,1.2396475226906734E-5,0.0013873019475251537
107,199.01128718490705,1.2550296332776871E-5,0.0013998522438579306
108,198.9970444666758,1.264567640322669E-5,0.0014124979202611574
109,198.98213819200035,1.2466903032336307E-5,0.0014249648232934936
110,198.96739054231585,1.2381384611493455E-5,0.001437346207904987
111,198.9528258300476,1.2080862196489363E-5,0.0014494270701014764
112,198.9379991475748,1.1988229858865182E-5,0.0014614152999603415
113,198.92275635257602,1.2056217715404738E-5,0.0014734715176757463
114,198.90757372541213,1.2198053486268907E-5,0.0014856695711620153
115,198.8920298725842,1.2371458307991981E-5,0.0014980410294700072
116,198.87513863199592,1.2370522263935276E-5,0.0015104115517339425
117,198.85849097320337,1.2437990116200418E-5,0.001522849541850143
118,198.8417524676883,1.2627424519264354E-5,0.0015354769663694075
119,198.82722323029276,1.2922516478132105E-5,0.0015483994828475395
120,198.81396950877186,1.326854263667312E-5,0.0015616680254842126
121,198.79974762619582,1.3057318153494817E-5,0.0015747253436377074
122,198.7856667288402,1.2937338795165565E-5,0.001587662682432873
123,198.7717112191889,1.2627740980188778E-5,0.0016002904234130616
124,198.7576567155614,1.2167593346759831E-5,0.0016124580167598214
125,198.74382469903583,1.2224126483054778E-5,0.0016246821432428762
126,198.72960331595627,1.2301111658699383E-5,0.0016369832549015756
127,198.71558100243556,1.2102971973129412E-5,0.001649086226874705
128,198.70150303379148,1.2217407921264608E-5,0.0016613036347959695
129,198.68752834884458,1.1958305300636393E-5,0.001673261940096606
130,198.67396564730913,1.2130103250329167E-5,0.0016853920433469352
131,198.66033848729938,1.2122475626505473E-5,0.0016975145189734406
132,198.64655512178481,1.2017961742237339E-5,0.001709532480715678
133,198.6328826450505,1.1848494830598836E-5,0.0017213809755462768
134,198.61926369564145,1.157625588982618E-5,0.001732957231436103
135,198.6051019713331,1.168381466932485E-5,0.0017446410461054278
136,198.59086568952952,1.179264867796268E-5,0.0017564336947833905
137,198.5760618086035,1.2240811427587748E-5,0.0017686745062109783
138,198.56141286087046,1.2445136667994047E-5,0.0017811196428789723
139,198.54651947036785,1.2632129239896324E-5,0.0017937517721188687
140,198.53202624820898,1.2806156089735452E-5,0.0018065579282086042
141,198.51771249708253,1.2755441437170091E-5,0.0018193133696457744
142,198.50303986450496,1.3032608550948433E-5,0.0018323459781967228
143,198.4876849484045,1.2798239120194511E-5,0.0018451442173169172
144,198.47275007367818,1.3235192254246876E-5,0.0018583794095711642
145,198.45770350484332,1.3204387523565704E-5,0.0018715837970947299
146,198.44266019272544,1.2723127320730939E-5,0.0018843069244154607
147,198.4275711361637,1.3008458262971981E-5,0.0018973153826784327
148,198.4128140896416,1.3003507342386346E-5,0.001910318890020819
149,198.3985342004282,1.2899531084535176E-5,0.0019232184211053541
150,198.38364306590756,1.2696110913326048E-5,0.0019359145320186801
151,198.36940249839662,1.2784401234513132E-5,0.0019486989332531933
152,198.3539718547295,1.2703674230737003E-5,0.0019614026074839305
153,198.33829249519377,1.2358127970122564E-5,0.001973760735454053
154,198.3230512599477,1.2531472828172785E-5,0.001986292208282226
155,198.30869671958504,1.2271000304491709E-5,0.0019985632085867174
156,198.2939179877722,1.2407172048040496E-5,0.002010970380634758
157,198.27932061392227,1.2762126568735514E-5,0.0020237325072034935
158,198.26433260351345,1.2608446595867021E-5,0.0020363409537993604
159,198.2504376150656,1.3283191092446776E-5,0.002049624144891807
160,198.23734400360155,1.3330724486016455E-5,0.0020629548693778237
161,198.22351480833274,1.3420070888629638E-5,0.0020763749402664534
162,198.2090156918521,1.3164008914479965E-5,0.0020895389491809332
163,198.19488449519085,1.3115381632506225E-5,0.0021026543308134394
164,198.1812938561599,1.3049762834013925E-5,0.0021157040936474534
165,198.16729183461916,1.2984968869971503E-5,0.002128689062517425
166,198.1537360613844,1.2774326175484729E-5,0.0021414633886929096
167,198.13951016278844,1.2667883540264983E-5,0.0021541312722331745
168,198.12493961785563,1.2804791332890315E-5,0.0021669360635660647
169,198.10984420272868,1.2636473755235653E-5,0.0021795725373213
170,198.09529454195524,1.2686704707327273E-5,0.0021922592420286274
171,198.0808604550421,1.2727552397414176E-5,0.0022049867944260414
172,198.0678156866996,1.2872514943673842E-5,0.002217859309369715
173,198.05454601962842,1.2847652961452258E-5,0.0022307069623311673
174,198.04055840347903,1.2819439131869858E-5,0.0022435264014630373
175,198.0265239096755,1.262547828551126E-5,0.0022561518797485484
176,198.01304829712356,1.2579758258287811E-5,0.002268731638006836
177,197.9990916475112,1.2327247303817267E-5,0.002281058885310653
178,197.98399288137577,1.2467727148364544E-5,0.0022935266124590177
179,197.9690071406547,1.2683862540957461E-5,0.002306210474999975
180,197.95366301329182,1.286627477691298E-5,0.002319076749776888
181,197.9396858793793,1.2493278261278745E-5,0.0023315700280381667
182,197.9258287503583,1.2485976682793787E-5,0.0023440560047209603
183,197.91151994429126,1.2631016272251257E-5,0.0023566870209932116
184,197.89661639397863,1.294680118044546E-5,0.002369633822173657
185,197.88191983471023,1.2898740306936016E-5,0.002382532562480593
186,197.86682528981146,1.2998547748616112E-5,0.0023955311102292092
187,197.85129152289267,1.2840914346524061E-5,0.002408372024575733
188,197.8362896287216,1.3052879228764349E-5,0.0024214249038044975
189,197.8205850912016,1.3056160305380901E-5,0.0024344810641098785
190,197.80572270737892,1.3029498811215706E-5,0.0024475105629210943
191,197.7898163385022,1.299545516469054E-5,0.002460506018085785
192,197.7735765998882,1.3114158908502427E-5,0.0024736201769942874
193,197.75704203851427,1.2968377817122001E-5,0.0024865885548114096
194,197.7409840091245,1.2971472132380892E-5,0.0024995600269437906
195,197.72516690888625,1.2767895536234173E-5,0.0025123279224800246
196,197.7090311354835,1.3251415332162587E-5,0.002525579337812187
197,197.69259835106007,1.33358845596079E-5,0.002538915222371795
198,197.6760307332092,1.3023833112076729E-5,0.002551939055483872
199,197.6607785173001,1.2753187738070949E-5,0.002564692243221943
200,197.6459897299753,1.247454089290949E-5,0.0025771667841148526
201,197.6309656938679,1.233602337889007E-5,0.0025895028074937425
202,197.61584317707343,1.2679928347494256E-5,0.0026021827358412367
203,197.60071790330588,1.2362451550386275E-5,0.002614545187391623
204,197.58531314382907,1.2578220908782551E-5,0.0026271234083004055
205,197.56829672844827,1.222679407513991E-5,0.0026393502023755455
206,197.55098350264976,1.2100631414112028E-5,0.0026514508337896576
207,197.53418170979512,1.2236584509113709E-5,0.002663687418298771
208,197.51656946048044,1.2386354751088746E-5,0.00267607377304986
209,197.49752277427518,1.2187472955299411E-5,0.0026882612460051593
210,197.47805196536743,1.2497302645750846E-5,0.00270075854865091
211,197.45936541356832,1.2367791634392748E-5,0.0027131263402853027
212,197.44073387813566,1.2629274227012999E-5,0.002725755614512316
213,197.42319585568617,1.2899258471802778E-5,0.0027386548729841187
214,197.406053867293,1.2719922584879876E-5,0.0027513747955689987
215,197.3892617854951,1.2724489622945417E-5,0.002764099285191944
216,197.37137981420636,1.2198850273886714E-5,0.002776298135465831
217,197.35289033391274,1.2665148627846988E-5,0.0027889632840936776
218,197.3346442308259,1.2532239408249284E-5,0.002801495523501927
219,197.31655875975696,1.2844789182998266E-5,0.002814340312684925
220,197.2988345818987,1.2642018366561007E-5,0.002826982331051486
221,197.28104364305227,1.2818898854234914E-5,0.002839801229905721
222,197.26252902747785,1.3059422228456976E-5,0.002852860652134178
223,197.24506153343222,1.3172927611447255E-5,0.0028660335797456252
224,197.2285949240856,1.3080269471015309E-5,0.0028791138492166406
225,197.21227869282285,1.2692981266713128E-5,0.0028918068304833538
226,197.1963769195265,1.3066541669784378E-5,0.0029048733721531383
227,197.17983255971347,1.281037164751483E-5,0.002917683743800653
228,197.16277879007438,1.219841123480606E-5,0.002929882155035459
229,197.14557574267042,1.1812598175156875E-5,0.0029416947532106157
230,197.12969298928138,1.1887273281564485E-5,0.00295358202649218
231,197.11407704032376,1.2050137935851878E-5,0.002965632164428032
232,197.09872236796113,1.1965768943664186E-5,0.002977597933371696
233,197.08349052170914,1.2142677856806232E-5,0.0029897406112285026
234,197.06841859890625,1.2225267930660798E-5,0.0030019658791591635
235,197.05228802913263,1.1970026558693735E-5,0.003013935905717857
236,197.03662732560366,1.2014015576025142E-5,0.0030259499212938823
237,197.0207273835715,1.2157759944500056E-5,0.0030381076812383825
238,197.00403008340658,1.1906432470465974E-5,0.0030500141137088485
239,196.98712048997953,1.1986916239263735E-5,0.003062001029948112
240,196.9696480858986,1.2293367160172104E-5,0.003074294397108284
241,196.95227237042576,1.2321452052316274E-5,0.0030866158491606004
242,196.93473339216942,1.2829136217410412E-5,0.0030994449853780108
243,196.91655698797632,1.2948845672549339E-5,0.00311239383105056
244,196.89821254316433,1.2749252245164509E-5,0.003125143083295725
245,196.8804072543173,1.3094940839416524E-5,0.003138238024135141
246,196.86227273701738,1.3001831508030361E-5,0.0031512398556431715
247,196.84333055469526,1.3402615980180527E-5,0.003164642471623352
248,196.82378938038676,1.3202252297601093E-5,0.003177844723920953
249,196.80375040300996,1.3047496535343843E-5,0.0031908922204562967
250,196.78332984653852,1.2925807983762723E-5,0.0032038180284400595
251,196.7629253648858,1.3161779740630677E-5,0.0032169798081806904
252,196.74173324542042,1.3265284481893804E-5,0.0032302450926625843
253,196.71930820049258,1.3603740000860915E-5,0.0032438488326634453
254,196.6969210384494,1.3333885956596058E-5,0.0032571827186200415
255,196.67422288446687,1.3615433611762545E-5,0.003270798152231804
256,196.65073344172026,1.331162510085005E-5,0.0032841097773326543
257,196.62660911436353,1.3033438220635656E-5,0.00329714321555329
258,196.60209847395828,1.338536916912761E-5,0.0033105285847224173
259,196.5792324972101,1.286139016025473E-5,0.003323389974882672
260,196.55462969865053,1.2752425807222985E-5,0.0033361424006898947
261,196.52960876767006,1.2926020861709527E-5,0.003349068421551604
262,196.5057945999354,1.2845758812121576E-5,0.003361914180363726
263,196.48232861452928,1.3210334779321592E-5,0.0033751245151430473
264,196.4593852251874,1.3067560966710579E-5,0.0033881920761097578
265,196.4377146425668,1.3134457823474576E-5,0.0034013265339332324
266,196.41777402203957,1.3431023369770466E-5,0.003414757557303003
267,196.39697671114644,1.3003626794705603E-5,0.0034277611840977085
268,196.37641693482598,1.3169226748094858E-5,0.0034409304108458036
269,196.35622473156647,1.2986716960941919E-5,0.0034539171278067456
270,196.33649794217,1.2622421696456455E-5,0.003466539549503202
271,196.31713160772182,1.2578671248315595E-5,0.0034791182207515176
272,196.2960727001435,1.2653207935948793E-5,0.0034917714286874665
273,196.27624236141182,1.2699447036989149E-5,0.0035044708757244556
274,196.25558256342973,1.2581805332997568E-5,0.003517052681057453
275,196.23566911804187,1.2563097261958126E-5,0.0035296157783194114
276,196.21431869191235,1.247951045821386E-5,0.0035420952887776254
277,196.19318445080944,1.2307266954415678E-5,0.003554402555732041
278,196.1710801947749,1.240970680169909E-5,0.00356681226253374
279,196.14772627723517,1.2315083896679817E-5,0.0035791273464304196
280,196.12448329847678,1.2141218098265835E-5,0.0035912685645286854
281,196.1013371670688,1.2253155301619933E-5,0.0036035217198303053
282,196.07906455235414,1.2047324318743187E-5,0.0036155690441490485
283,196.05607338556058,1.186300721840793E-5,0.0036274320513674566
284,196.032528982082,1.1770470833803443E-5,0.00363920252220126
285,196.00936638178968,1.1816531381612072E-5,0.003651019053582872
286,195.9851051865177,1.2157190277349668E-5,0.0036631762438602213
287,195.961603878771,1.1994907370228825E-5,0.00367517115123045
288,195.9386010080063,1.1976298461849997E-5,0.0036871474496923003
289,195.91612546932657,1.1753801078837997E-5,0.0036989012507711383
290,195.89486232550124,1.1823578477780343E-5,0.0037107248292489185
291,195.87327571965602,1.160918952118839E-5,0.003722334018770107
292,195.85043136068,1.1530180168625788E-5,0.0037338641989387326
293,195.82682202935405,1.1961451281200214E-5,0.003745825650219933
294,195.802127416661,1.231526588175229E-5,0.003758140916101685
295,195.77811681740752,1.2127305587184136E-5,0.0037702682216888693
296,195.75542570685937,1.2223659408927684E-5,0.003782491881097797
297,195.73253975538123,1.213758804600908E-5,0.003794629469143806
298,195.70861019531168,1.2161905891608529E-5,0.0038067913750354145
299,195.6845808135427,1.2083018073142649E-5,0.0038188743931085573
300,195.66010398694866,1.2464619360893818E-5,0.0038313390124694513
301,195.6359350194175,1.2542477995890828E-5,0.003843881490465342
302,195.61325901967814,1.276809312706075E-5,0.0038566495835924025
303,195.59096169571768,1.2654177302289327E-5,0.0038693037608946916
