#t,ESS,tempDiff,temp
0,999.9999999999848,0.0,0.0
1,999.9902596101156,9.934132947346511E-5,9.934132947346511E-5
2,999.9630033392132,9.798921292824729E-5,1.973305424017124E-4
3,999.9192212184263,1.0126582307924323E-4,2.9859636548095565E-4
4,999.8606261838328,1.0082801520846294E-4,3.994243806894186E-4
5,999.7865311762993,1.0042375361580507E-4,4.998481343052236E-4
6,999.6958074946418,1.0303138883625479E-4,6.028795231414784E-4
7,999.5928688805387,1.0069609616725587E-4,7.035756193087343E-4
8,999.4745151983444,1.0214626418813508E-4,8.057218834968693E-4
9,999.3463839472421,1.0220673232610594E-4,9.079286158229753E-4
10,999.2064237113274,1.036731634109735E-4,0.0010116017792339488
11,999.0525940549874,1.0332048406045884E-4,0.0011149222632944077
12,998.8976089854731,1.0182754601366019E-4,0.0012167498093080679
13,998.7287498684675,1.037298363788828E-4,0.0013204796456869506
14,998.5518180336128,1.0234927339353161E-4,0.0014228289190804822
15,998.3682334795221,1.0045524771334848E-4,0.0015232841667938307
16,998.1780245834476,1.0177663538839477E-4,0.0016250608021822254
17,997.9699151509323,1.013836520794722E-4,0.0017264444542616976
18,997.7582861237179,1.0133587458474794E-4,0.0018277803288464455
19,997.5428577256439,1.0159073318698528E-4,0.0019293710620334307
20,997.3134030887779,1.0273044672240645E-4,0.002032101508755837
21,997.0782668785768,1.0043698571684406E-4,0.0021325384944726813
22,996.8380952629994,1.0194958093778496E-4,0.0022344880754104663
23,996.5943084218823,1.016887546156737E-4,0.00233617683002614
24,996.3464353168144,1.024621150470996E-4,0.0024386389450732396
25,996.0902588206662,1.0295638242986593E-4,0.0025415953275031056
26,995.8290472742148,1.0215312473604395E-4,0.0026437484522391494
27,995.5534906816291,1.0300141722833002E-4,0.0027467498694674795
28,995.2677157907335,1.0279634057068534E-4,0.002849546210038165
29,994.9861354016381,1.0260407476213453E-4,0.0029521502848002994
30,994.7002571640154,1.0361579758256173E-4,0.003055766082382861
31,994.4080839025821,1.0281987311531154E-4,0.0031585859554981725
32,994.1186765320131,1.035609894627441E-4,0.0032621469449609164
33,993.817308485244,1.0471177306866419E-4,0.0033668587180295806
34,993.5182733040973,1.0347154112035473E-4,0.0034703302591499352
35,993.2259964128439,1.031268129698824E-4,0.0035734570721198174
36,992.9250077236504,1.0337239013527607E-4,0.0036768294622550935
37,992.6131710013274,1.040806670198733E-4,0.0037809101292749668
38,992.3021939245663,1.0318973914624919E-4,0.003884099868421216
39,992.0025952976848,1.0112245387896261E-4,0.003985222322300179
40,991.7013841091715,1.0202636056444302E-4,0.0040872486828646215
41,991.3904681655338,1.004956800876269E-4,0.004187744362952248
42,991.0666018609495,1.0166241893414202E-4,0.004289406781886391
43,990.7371695630574,1.0538796005098634E-4,0.004394794741937377
44,990.4113761785977,1.0587156813958321E-4,0.00450066631007696
45,990.0789509205548,1.060378483373816E-4,0.004606704158414342
46,989.756897863289,1.034353468164979E-4,0.00471013950523084
47,989.4321334534324,1.0516315803106924E-4,0.004815302663261909
48,989.1036431431487,1.0449268928445554E-4,0.004919795352546365
49,988.7808824492992,1.0463866352905338E-4,0.005024434016075418
50,988.4740371465119,1.0407424953052053E-4,0.005128508265605939
51,988.1463548504423,1.0466254286320862E-4,0.005233170808469147
52,987.8170825000119,1.048184811531122E-4,0.00533798928962226
53,987.4972300825211,1.0275454796666351E-4,0.005440743837588923
54,987.1750397856861,1.023896437815787E-4,0.005543133481370502
55,986.8500542138793,1.0205540363301977E-4,0.005645188885003522
56,986.5231096281066,1.031115195240218E-4,0.005748300404527543
57,986.2104834414675,1.037629562735089E-4,0.005852063360801052
58,985.8831060797414,1.0572019663874543E-4,0.005957783557439797
59,985.5502852079512,1.073065103349932E-4,0.0060650900677747905
60,985.21483769499,1.0842903567140924E-4,0.0061735191034462
61,984.8846539902015,1.0361364322880948E-4,0.0062771327466750095
62,984.5581774120146,1.0374756829612657E-4,0.006380880314971136
63,984.2447122853252,1.0564340151966084E-4,0.006486523716490797
64,983.92409204959,1.0558264114324934E-4,0.006592106357634047
65,983.5959764832529,1.0490284568504835E-4,0.006697009203319095
66,983.2594853491053,1.0538651209014944E-4,0.006802395715409245
67,982.9122832649202,1.0738074260774063E-4,0.006909776458016986
68,982.5551862003408,1.0717403509736275E-4,0.007016950493114348
69,982.1844037915878,1.0811345154232297E-4,0.007125063944656671
70,981.831917472373,1.0911996521178667E-4,0.007234183909868457
71,981.4674692354539,1.0864727721425552E-4,0.007342831187082713
72,981.1197185305131,1.0713559322313415E-4,0.007449966780305847
73,980.7590718668307,1.0763360509012733E-4,0.007557600385395975
74,980.3867607986778,1.1032546272993306E-4,0.007667925848125908
75,980.0102470848055,1.1060424068340203E-4,0.00777853008880931
76,979.6273413454543,1.1370996985416234E-4,0.007892240058663473
77,979.2263725451767,1.1563833247469909E-4,0.008007878391138172
78,978.8150720216225,1.1485287081769565E-4,0.008122731261955868
79,978.3952037159156,1.127624203417655E-4,0.008235493682297633
80,977.9530463570791,1.1119427796548547E-4,0.00834668796026312
81,977.5038789246346,1.1188035609963768E-4,0.008458568316362757
82,977.0429819134248,1.0989166680156552E-4,0.008568459983164323
83,976.5949580814463,1.1037832764153996E-4,0.008678838310805863
84,976.1826495474737,1.0748470098594642E-4,0.00878632301179181
85,975.7845282286662,1.0878178903496756E-4,0.008895104800826777
86,975.3679086339062,1.1196108264047555E-4,0.009007065883467252
87,974.9515748528677,1.1220217957818156E-4,0.009119268063045433
88,974.5618657926494,1.1029959843881532E-4,0.009229567661484249
89,974.1893511251333,1.0849202117420382E-4,0.009338059682658452
90,973.824455308502,1.0833161610391114E-4,0.009446391298762362
91,973.4618190399335,1.0859587447389179E-4,0.009554987173236254
92,973.0992903641114,1.0756965490692406E-4,0.009662556828143178
93,972.7250164229574,1.1032620346079425E-4,0.009772883031603972
94,972.3477111521662,1.101672572992206E-4,0.009883050288903194
95,971.9623523335998,1.0824022241809634E-4,0.00999129051132129
96,971.5843432415757,1.074716933968548E-4,0.010098762204718146
97,971.205679135048,1.071409339477627E-4,0.01020590313866591
98,970.8449589774382,1.0784073210593628E-4,0.010313743870771845
99,970.5037345729406,1.07257901794053E-4,0.0104210017725659
100,970.1791569685212,1.0863228317067004E-4,0.01052963405573657
101,969.8498898630827,1.1094603344990014E-4,0.01064058008918647
102,969.5378207945071,1.0978277333864713E-4,0.010750362862525117
103,969.2494316868328,1.080167235343682E-4,0.010858379586059485
104,968.9770468063722,1.0762878608980335E-4,0.010966008372149288
105,968.6838759298133,1.0572008271111699E-4,0.011071728454860406
106,968.3820121751706,1.0538553979687684E-4,0.011177113994657283
107,968.0798723774419,1.0477690758504171E-4,0.011281890902242324
108,967.7812628087306,1.0602807973109076E-4,0.011387918981973414
109,967.4860991247617,1.0552921776293473E-4,0.011493448199736349
110,967.191631665317,1.0607334252758721E-4,0.011599521542263937
111,966.8864194403278,1.0814625094566993E-4,0.011707667793209607
112,966.5794934831262,1.0653636619958111E-4,0.011814204159409189
113,966.2689574421341,1.0566465929758144E-4,0.011919868818706771
114,965.9440526820398,1.0728156813724463E-4,0.012027150386844015
115,965.6288451927239,1.0668463613099743E-4,0.012133835022975013
116,965.3055592223859,1.0748106115396707E-4,0.01224131608412898
117,964.9510446910567,1.087845525870937E-4,0.012350100636716073
118,964.5940679094991,1.0867877092516926E-4,0.012458779407641243
119,964.241542692881,1.0778003903561154E-4,0.012566559446676855
120,963.8890346604952,1.067832455577221E-4,0.012673342692234578
121,963.5861102135083,1.0451902317016433E-4,0.012777861715404742
122,963.3101007193524,1.0387010904701201E-4,0.012881731824451754
123,963.0199358855738,1.0606361478444664E-4,0.012987795439236201
124,962.7290170173186,1.0700046819179412E-4,0.013094795907427995
125,962.4304984180726,1.0857696752189558E-4,0.01320337287494989
126,962.137194538173,1.1177672804575664E-4,0.013315149602995647
127,961.8569199062705,1.109940631376155E-4,0.013426143666133263
128,961.5456771783558,1.1261792506847347E-4,0.013538761591201737
129,961.2604325417705,1.11665651492992E-4,0.013650427242694729
130,960.9800031875311,1.0930218985802683E-4,0.013759729432552756
131,960.6783113728317,1.0932329240581104E-4,0.013869052724958567
132,960.3743674503105,1.0849548299728283E-4,0.01397754820795585
133,960.0615122383188,1.0767346814848459E-4,0.014085221676104334
134,959.7601584485604,1.0889601499859722E-4,0.014194117691102931
135,959.4551819513385,1.1033270319256101E-4,0.014304450394295492
136,959.1414185888132,1.1024685384631036E-4,0.014414697248141803
137,958.8263449229578,1.096600768487057E-4,0.014524357324990508
138,958.4943432094166,1.1075441703327623E-4,0.014635111742023785
139,958.1659375293914,1.1165957930489475E-4,0.01474677132132868
140,957.8491346649066,1.1004301907786956E-4,0.01485681434040655
141,957.563926358966,1.1055899194627528E-4,0.014967373332352825
142,957.2692920105843,1.0873478790460856E-4,0.015076108120257434
143,956.9662740700024,1.0814103041525569E-4,0.01518424915067269
144,956.6657361349521,1.087168676036252E-4,0.015292966018276314
145,956.3724748765568,1.1069567233429991E-4,0.015403661690610615
146,956.0700031381915,1.1135253157963772E-4,0.015515014222190253
147,955.7651926379776,1.1156798088029985E-4,0.015626582203070553
148,955.436272938953,1.1328258958617058E-4,0.015739864792656724
149,955.1195723004714,1.10953592137938E-4,0.01585081838479466
150,954.7932909111662,1.0962971887295498E-4,0.015960448103667615
151,954.4566543012044,1.1111076404293622E-4,0.016071558867710552
152,954.1184260145103,1.1224940991410322E-4,0.016183808277624657
153,953.7906937678499,1.1095460568879545E-4,0.01629476288331345
154,953.4537916919227,1.118373648939796E-4,0.01640660024820743
155,953.1156975450707,1.1142712314815708E-4,0.016518027371355586
156,952.7616189334292,1.1316663964427068E-4,0.016631194010999856
157,952.4099625552075,1.1314156722543395E-4,0.01674433557822529
158,952.0366208447887,1.1258015192057636E-4,0.016856915730145867
159,951.6580599676714,1.1148125841789167E-4,0.01696839698856376
160,951.2911020302497,1.1114930107291847E-4,0.017079546289636677
161,950.9122012713373,1.1299914111676642E-4,0.017192545430753443
162,950.5160629326705,1.1111360014176875E-4,0.017303659030895212
163,950.1360884864447,1.1215036531928337E-4,0.017415809396214496
164,949.7351230717172,1.1140680598410672E-4,0.017527216202198603
165,949.3261585735803,1.1229975131256792E-4,0.01763951595351117
166,948.8925306242153,1.131783782465097E-4,0.01775269433175768
167,948.4775956132638,1.1469726669918595E-4,0.017867391598456867
168,948.0844246064079,1.1431375439010727E-4,0.017981705352846974
169,947.7009868372115,1.1395637150591513E-4,0.01809566172435289
170,947.3349382011245,1.1520709727521188E-4,0.0182108688216281
171,946.9255785732275,1.1654879446929808E-4,0.018327417616097397
172,946.4759835099601,1.185015678443323E-4,0.018445919183941728
173,946.0100714730673,1.1907084398115497E-4,0.018564990027922883
174,945.562221869781,1.1603780399083781E-4,0.01868102783191372
175,945.1098596189664,1.180715003150117E-4,0.018799099332228734
176,944.6912117135556,1.165869550693288E-4,0.01891568628729806
177,944.2622079208405,1.1600665425507693E-4,0.019031692941553137
178,943.8591395583517,1.1590084640095351E-4,0.019147593787954092
179,943.4497100232586,1.1715397262241565E-4,0.019264747760576507
180,943.026445205978,1.1848273214836515E-4,0.019383230492724873
181,942.6203574992602,1.187201197799947E-4,0.019501950612504867
182,942.2544937463796,1.2017728832297767E-4,0.019622127900827846
183,941.8930062248539,1.19976153169732E-4,0.019742104053997577
184,941.5387510857452,1.2076282466067565E-4,0.019862866878658254
185,941.1688248764856,1.2288497149057128E-4,0.019985751850148826
186,940.8220851629407,1.224965847616709E-4,0.020108248434910495
187,940.4567134143601,1.2380052278489946E-4,0.020232048957695394
188,940.1035824468507,1.2113704930787673E-4,0.020353186007003272
189,939.76026766305,1.2196321310183998E-4,0.020475149220105113
190,939.4001094352101,1.22187563428079E-4,0.02059733678353319
191,939.0206602333102,1.2160747218816662E-4,0.020718944255721357
192,938.6520720222195,1.2057943085569502E-4,0.02083952368657705
193,938.2826448202228,1.1821882589193649E-4,0.02095774251246899
194,937.9285822068151,1.1924000790490857E-4,0.021076982520373898
195,937.5769647194385,1.1856333445394262E-4,0.02119554585482784
196,937.2011909501085,1.1866012208203515E-4,0.021314205976909875
197,936.8232752852921,1.2074242008155635E-4,0.02143494839699143
198,936.4874863554122,1.1935260852625455E-4,0.021554301005517685
199,936.1606778893836,1.1835384623054103E-4,0.021672654851748227
200,935.8455882697914,1.156547583737469E-4,0.021788309610121973
201,935.5182365454764,1.1769719643142537E-4,0.0219060068065534
202,935.1717931727832,1.1833081547200466E-4,0.022024337622025405
203,934.8180251489086,1.1789022289299898E-4,0.022142227844918403
204,934.4995574064128,1.1800596949194989E-4,0.022260233814410352
205,934.1255097168626,1.1794440246344095E-4,0.022378178216873792
206,933.7610267680426,1.1972921018817385E-4,0.022497907427061967
207,933.4237221647741,1.1869347648917007E-4,0.022616600903551137
208,933.0909572078568,1.2005970423692054E-4,0.02273666060778806
209,932.7489456372354,1.2029043345508926E-4,0.022856951041243148
210,932.4082853785904,1.207826984991359E-4,0.022977733739742285
211,932.0808594318125,1.2011672829704278E-4,0.02309785046803933
212,931.7766970588548,1.2032265711428763E-4,0.02321817312515362
213,931.4815182912151,1.2101208582424054E-4,0.02333918521097786
214,931.143271346123,1.1967077801286549E-4,0.023458855988990723
215,930.8033054438199,1.176303997250978E-4,0.02357648638871582
216,930.4839218968316,1.1994993111021387E-4,0.023696436319826035
217,930.1591350940851,1.2253467385878706E-4,0.023818970993684824
218,929.838769535741,1.221914643851306E-4,0.023941162458069955
219,929.530410850301,1.2193861475233341E-4,0.02406310107282229
220,929.2208603505742,1.225452670169765E-4,0.024185646339839266
221,928.9135027659346,1.224074525756156E-4,0.02430805379241488
222,928.5839669787474,1.212740332973342E-4,0.024429327825712215
223,928.2383604509521,1.2069705572092755E-4,0.024550024881433142
224,927.912706253825,1.213963828782841E-4,0.024671421264311426
225,927.5665494601357,1.2090841411528292E-4,0.02479232967842671
226,927.2032482001719,1.2223082884034307E-4,0.024914560507267054
227,926.849950052568,1.2203882042649069E-4,0.025036599327693546
228,926.4747082378566,1.2277898997447448E-4,0.02515937831766802
229,926.0993412083146,1.2250890861878748E-4,0.025281887226286808
230,925.7375069189587,1.2183895139942912E-4,0.02540372617768624
231,925.3645541997964,1.2309060230981874E-4,0.025526816779996058
232,925.032932619306,1.2352318093929412E-4,0.025650339960935353
233,924.7038807739984,1.2187485779379161E-4,0.025772214818729145
234,924.3790196780009,1.2085464875069064E-4,0.025893069467479837
235,924.0571135158912,1.2345165417686105E-4,0.0260165211216567
236,923.7162854486207,1.25799717367803E-4,0.026142320839024503
237,923.3781039404436,1.27278559063668E-4,0.02626959939808817
238,923.0623188497016,1.2178689840553141E-4,0.026391386296493704
239,922.7553868888303,1.2178963418220841E-4,0.02651317593067591
240,922.4567234703936,1.2373129339909462E-4,0.026636907224075006
241,922.1416913313151,1.2384544648332484E-4,0.02676075267055833
242,921.8086656744572,1.231559932125343E-4,0.026883908663770863
243,921.5245015646445,1.2169526816664843E-4,0.027005603931937513
244,921.2390506954823,1.2037589086525311E-4,0.027125979822802765
245,920.9462520522993,1.2330180976634662E-4,0.027249281632569112
246,920.6254653664778,1.2212247647874484E-4,0.027371404109047856
247,920.3486385778783,1.2491030084394724E-4,0.027496314409891802
248,920.0572872516912,1.2084612778217246E-4,0.027617160537673973
249,919.7714326980205,1.2241675564527406E-4,0.02773957729331925
250,919.4331829611586,1.2331891011065378E-4,0.027862896203429903
251,919.1015729614587,1.241675131174539E-4,0.027987063716547356
252,918.7747453012395,1.2425516797126814E-4,0.028111318884518625
253,918.4107441991451,1.2268359306555443E-4,0.028234002477584178
254,918.0721297902189,1.2380897015928387E-4,0.02835781144774346
255,917.7162991168981,1.2349782867663998E-4,0.028481309276420102
256,917.3838164268636,1.2598836681110065E-4,0.0286072976432312
257,917.0074395604726,1.2909007369690185E-4,0.028736387716928102
258,916.6561049834921,1.2605745639372978E-4,0.028862445173321833
259,916.3178544620476,1.2671876300236366E-4,0.028989163936324197
260,915.965801022222,1.2862535037699754E-4,0.029117789286701196
261,915.6205085414118,1.310905312989389E-4,0.029248879818000135
262,915.2838278804956,1.2904047561571359E-4,0.02937792029361585
263,914.943408796096,1.2718227211135525E-4,0.029505102565727203
264,914.588871373774,1.254479431354715E-4,0.029630550508862673
265,914.2292096660092,1.2575057334192192E-4,0.029756301082204596
266,913.8677347698557,1.2635771187774041E-4,0.029882658794082338
267,913.5168830875829,1.2398237084539947E-4,0.03000664116492774
268,913.1447995445876,1.2687816940075815E-4,0.030133519334328496
269,912.8335570186479,1.2793189335593834E-4,0.030261451227684436
270,912.4835531465702,1.3068792684970952E-4,0.030392139154534144
271,912.1633356393154,1.309146950635302E-4,0.030523053849597675
272,911.7845840705289,1.306207848699899E-4,0.030653674634467665
273,911.4544839637439,1.266079759025652E-4,0.03078028261037023
274,911.1142563987853,1.281512437226958E-4,0.030908433854092924
275,910.7449773296379,1.317642455433407E-4,0.031040198099636266
276,910.3584771334276,1.3079548028929286E-4,0.03117099357992556
277,910.0134403483459,1.2849841258028057E-4,0.03129949199250584
278,909.6743069741035,1.2958156372185178E-4,0.03142907355622769
279,909.3138932248642,1.32110101939305E-4,0.03156118365816699
280,908.9411220006832,1.3388447625842812E-4,0.03169506813442542
281,908.5759983809022,1.3545764313119054E-4,0.031830525777556615
282,908.2400266249244,1.3492969186571651E-4,0.03196545546942233
283,907.9013817224159,1.3504796171475998E-4,0.032100503431137094
284,907.5774406355224,1.3611637154272634E-4,0.03223661980267982
285,907.2902616333355,1.3533380642412346E-4,0.03237195360910394
286,906.9814510829397,1.344128965403768E-4,0.03250636650564432
287,906.69221890879,1.3412623426080887E-4,0.03264049273990513
288,906.4072663928414,1.3330092461437144E-4,0.032773793664519504
289,906.1193086113514,1.3082748208728817E-4,0.03290462114660679
290,905.8118792139832,1.3098705109816202E-4,0.03303560819770495
291,905.5067119456868,1.2983537256402173E-4,0.033165443570268974
292,905.1799724439643,1.2985106065278965E-4,0.03329529463092176
293,904.8427351612676,1.2974808822910756E-4,0.03342504271915087
294,904.495777175401,1.335385890924837E-4,0.03355858130824336
295,904.1408898333092,1.335377855324525E-4,0.03369211909377581
296,903.8079299928635,1.3374030170013352E-4,0.03382585939547594
297,903.5020248945237,1.3381933801774173E-4,0.03395967873349368
298,903.196087634506,1.3581449061359516E-4,0.03409549322410728
299,902.9139757071719,1.3732932763972297E-4,0.034232822551747005
300,902.6091961235873,1.4114751290846288E-4,0.034373970064655465
301,902.3131110339199,1.3851937537429502E-4,0.03451248944002976
302,902.0050417344963,1.3781011106977725E-4,0.03465029955109954
303,901.7248957306347,1.3844781643008463E-4,0.03478874736752963
304,901.4462828562675,1.4015454999205884E-4,0.03492890191752169
305,901.1560276502541,1.386739754283383E-4,0.03506757589295003
306,900.8521416197175,1.3835138292545124E-4,0.03520592727587548
307,900.4964001012394,1.3758926952447273E-4,0.03534351654539995
308,900.1363476255982,1.3770234999837077E-4,0.03548121889539833
309,899.7434083130688,1.3789627602731243E-4,0.03561911517142564
310,899.3479468279181,1.3804425132096524E-4,0.035757159422746605
311,899.0110162390928,1.3749298431013442E-4,0.03589465240705674
