#t,ESS,tempDiff,temp
0,999.9999999999848,0.0,0.0
1,999.9899999999951,2.9739918057895948E-5,2.9739918057895948E-5
2,999.9602627524355,2.9664245461280702E-5,5.940416351917665E-5
3,999.9111025052571,2.9643489527467723E-5,8.904765304664438E-5
4,999.8426521729305,2.9649601141019918E-5,1.1869725418766429E-4
5,999.7552853972836,2.9610997049104153E-5,1.4830825123676844E-4
6,999.6492467349717,2.9265088167611783E-5,1.775733394043802E-4
7,999.5249928537595,2.92223615518289E-5,2.067957009562091E-4
8,999.3828656167665,2.915981929978069E-5,2.359555202559898E-4
9,999.2227885706369,2.904314346877337E-5,2.6499866372476315E-4
10,999.0452240172698,2.9078166009490105E-5,2.9407682973425325E-4
11,998.8504198700349,2.8979043080609743E-5,3.23055872814863E-4
12,998.6394995166258,2.9034003850696377E-5,3.520898766655594E-4
13,998.4121459951922,2.8798156544965424E-5,3.8088803321052484E-4
14,998.1681557530666,2.8968577621752615E-5,4.0985661083227745E-4
15,997.9077017780452,2.910372593101865E-5,4.389603367632961E-4
16,997.6318602410614,2.903865380116677E-5,4.679989905644628E-4
17,997.3404563739169,2.9172047136826297E-5,4.971710377012892E-4
18,997.0322129188685,2.9247576789279837E-5,5.26418614490569E-4
19,996.7073434999556,2.9440321613041282E-5,5.558589361036102E-4
20,996.3681069376294,2.946127113032329E-5,5.853202072339335E-4
21,996.0141428770423,2.950502243016509E-5,6.148252296640987E-4
22,995.6444782660767,2.962966586919751E-5,6.444548955332962E-4
23,995.2617033138126,2.9770144621141154E-5,6.742250401544374E-4
24,994.8635312301451,2.97332369396909E-5,7.039582770941283E-4
25,994.4522421454968,2.9847776030117686E-5,7.33806053124246E-4
26,994.0267900175452,2.9977919023965054E-5,7.637839721482111E-4
27,993.5858912166872,2.998706340962287E-5,7.93771035557834E-4
28,993.1303887259405,2.980640459589807E-5,8.235774401537321E-4
29,992.6618265924855,2.949682799220839E-5,8.530742681459405E-4
30,992.1826504697915,2.9311594543320234E-5,8.823858626892607E-4
31,991.6900715201825,2.8895374172098816E-5,9.112812368613595E-4
32,991.1838464835021,2.9015378074525753E-5,9.402966149358853E-4
33,990.6673294937082,2.8968564334264406E-5,9.692651792701497E-4
34,990.1411423562095,2.8916804055940605E-5,9.981819833260904E-4
35,989.602358000778,2.8994785657545952E-5,0.0010271767689836364
36,989.0520377640202,2.898326920248611E-5,0.0010561600381861224
37,988.4907106440443,2.909457828780695E-5,0.0010852546164739293
38,987.9178733355026,2.9421635596100435E-5,0.0011146762520700298
39,987.3317921145615,2.949015527677843E-5,0.0011441664073468083
40,986.7286608132131,2.9159828607374917E-5,0.0011733262359541832
41,986.1097728611197,2.9077394325986702E-5,0.00120240363028017
42,985.4846542593536,2.9160296928291208E-5,0.0012315639272084612
43,984.8459560811208,2.914039435829212E-5,0.0012607043215667533
44,984.1964945805394,2.9140734114693025E-5,0.0012898450556814464
45,983.5370956171256,2.9106465280840646E-5,0.001318951520962287
46,982.8722615859539,2.908886878318685E-5,0.001348040389745474
47,982.1996748761188,2.9202402369214708E-5,0.0013772427921146886
48,981.5151247870962,2.9348312983655402E-5,0.001406591105098344
49,980.8211542101545,2.9350259817008005E-5,0.001435941364915352
50,980.1123599631886,2.917329544752174E-5,0.0014651146603628738
51,979.392957078089,2.9064533895583395E-5,0.0014941791942584572
52,978.6666729930656,2.9235667495268667E-5,0.001523414861753726
53,977.9284213731672,2.962562280663745E-5,0.0015530404845603633
54,977.1847495290311,2.9833062918216177E-5,0.0015828735474785794
55,976.4305107552495,2.9818032315734905E-5,0.0016126915797943144
56,975.6658219196611,2.9648292864727686E-5,0.001642339872659042
57,974.8919138328108,2.9671038919449465E-5,0.0016720109115784915
58,974.1123164577725,2.9636808853361563E-5,0.0017016477204318532
59,973.3193328895013,2.9353562562264766E-5,0.001731001282994118
60,972.5167781997187,2.9212756076626587E-5,0.0017602140390707446
61,971.7027786127426,2.9119742131370304E-5,0.0017893337812021149
62,970.8744116181444,2.9106367539143436E-5,0.0018184401487412584
63,970.0444537405306,2.9101383203618696E-5,0.001847541531944877
64,969.1994136956198,2.920228381243228E-5,0.0018767438157573093
65,968.3501623588263,2.932626736398233E-5,0.0019060700831212917
66,967.494163014474,2.9284607598147217E-5,0.001935354690719439
67,966.6318331961688,2.953772857340597E-5,0.001964892419292845
68,965.7611099899219,2.9856906905116827E-5,0.001994749326197962
69,964.8855412347991,2.9673526906189038E-5,0.002024422853104151
70,964.009857984113,2.9650611029670206E-5,0.002054073464133821
71,963.1185495654128,2.9731980843905296E-5,0.002083805444977726
72,962.2172800957949,2.9587589550110156E-5,0.002113393034527836
73,961.3117447962973,2.9414216863090938E-5,0.0021428072513909272
74,960.3930456416613,2.926112401296145E-5,0.0021720683754038886
75,959.4681663995171,2.9308093579463986E-5,0.0022013764689833527
76,958.5409359507195,2.921488494914286E-5,0.0022305913539324954
77,957.6078444077442,2.9223464005501252E-5,0.0022598148179379966
78,956.6679692738065,2.9074636117997632E-5,0.0022888894540559943
79,955.7247329261586,2.9311922239839147E-5,0.0023182013762958337
80,954.774431706882,2.937767003909515E-5,0.0023475790463349288
81,953.8115297092729,2.9540646837895558E-5,0.0023771196931728243
82,952.8429887813153,2.9427809886094953E-5,0.0024065475030589194
83,951.8620830982454,2.9361301100444696E-5,0.002435908804159364
84,950.8779316770052,2.934164738866265E-5,0.002465250451548027
85,949.8932802834898,2.907561535295978E-5,0.0024943260669009868
86,948.9019859552391,2.8796665387596062E-5,0.0025231227322885827
87,947.9087049968872,2.8696150583662928E-5,0.0025518188828722458
88,946.9112977886444,2.8818196395235145E-5,0.002580637079267481
89,945.9004697294799,2.888665055992468E-5,0.0026095237298274054
90,944.8866109981336,2.8899414820766965E-5,0.0026384231446481723
91,943.8638579218924,2.8885470431364326E-5,0.0026673086150795365
92,942.8389782565359,2.8790857196091127E-5,0.002696099472275628
93,941.8027896936015,2.9020002660105758E-5,0.0027251194749357338
94,940.7632898423552,2.8822717788283092E-5,0.002753942192724017
95,939.7209379415676,2.861058062200859E-5,0.0027825527733460254
96,938.6702377204165,2.8513056398347167E-5,0.0028110658297443728
97,937.6125391675903,2.854879808373136E-5,0.002839614627828104
98,936.5434654921803,2.8351081926738204E-5,0.0028679657097548422
99,935.4736960779319,2.826215678784199E-5,0.0028962278665426843
100,934.4043346826895,2.8588924761969093E-5,0.0029248167913046535
101,933.3207889826125,2.8398178150045075E-5,0.002953214969454699
102,932.2376926090052,2.8368899016282978E-5,0.0029815838684709817
103,931.1656343648052,2.8019647107659514E-5,0.003009603515578641
104,930.0841555139918,2.7877753199840857E-5,0.003037481268778482
105,928.9993244856051,2.7786069416339787E-5,0.003065267338194822
106,927.9047112938025,2.7685787185402874E-5,0.0030929531253802247
107,926.8011982906114,2.753071081049018E-5,0.003120483836190715
108,925.6906022431313,2.7664910883164683E-5,0.0031481487470738797
109,924.5924221368848,2.791851511457126E-5,0.003176067262188451
110,923.487462848853,2.7914201579451696E-5,0.003203981463767903
111,922.4002274362897,2.793994600252981E-5,0.0032319214097704324
112,921.3069586685789,2.8109780085251405E-5,0.0032600311898556837
113,920.2109823341176,2.8003831752888243E-5,0.003288035021608572
114,919.1178313284877,2.8049524913270577E-5,0.0033160845465218425
115,918.0262581929318,2.7763303413387386E-5,0.00334384784993523
116,916.9234841906123,2.785500378038499E-5,0.003371702853715615
117,915.8306590674556,2.801318685009564E-5,0.0033997160405657106
118,914.7372718916235,2.7951026349859507E-5,0.00342766706691557
119,913.6508017528878,2.7748717515352196E-5,0.003455415784430922
120,912.5659978755853,2.7714909329673892E-5,0.003483130693760596
121,911.4739851812948,2.7778732342233003E-5,0.003510909426102829
122,910.3563555179194,2.7722983051161304E-5,0.00353863240915399
123,909.2355758785459,2.7937809148674885E-5,0.003566570218302665
124,908.1141290392909,2.8070845651986063E-5,0.003594641063954651
125,906.9851329279653,2.801031435232651E-5,0.0036226513783069775
126,905.8605657750195,2.7946114555599517E-5,0.003650597492862577
127,904.7268438321994,2.782901620873081E-5,0.003678426509071308
128,903.5931152063462,2.7868060418756588E-5,0.0037062945694900646
129,902.4663158811462,2.787586666080753E-5,0.003734170436150872
130,901.3321683448652,2.756635914831263E-5,0.003761736795299185
131,900.1961064424752,2.774904838074484E-5,0.0037894858436799297
132,899.0589004790316,2.7640673000352587E-5,0.0038171265166802824
133,897.907569655026,2.743757781678446E-5,0.003844564094497067
134,896.7482615958197,2.7354162335957694E-5,0.0038719182568330247
135,895.5833619860579,2.7559670642107005E-5,0.0038994779274751316
136,894.4273557444124,2.7653228324703146E-5,0.003927131155799834
137,893.2821864422016,2.7709680264983817E-5,0.003954840836064818
138,892.1292100037326,2.7759077681190615E-5,0.003982599913746009
139,890.974107775112,2.7845819654902685E-5,0.004010445733400912
140,889.825610381769,2.8041171581134495E-5,0.004038486904982046
141,888.6672788846157,2.8193712577408334E-5,0.0040666806175594546
142,887.5106887905789,2.820688464200821E-5,0.004094887502201463
143,886.3463900387012,2.846493190738193E-5,0.004123352434108845
144,885.1771315389727,2.8545558564380128E-5,0.004151897992673225
145,883.9918579983147,2.845798644126761E-5,0.004180355979114493
146,882.7983673557694,2.8411740105928877E-5,0.0042087677192204215
147,881.5880879526542,2.8320527616206964E-5,0.004237088246836628
148,880.3792571802284,2.8388421082403493E-5,0.0042654766679190315
149,879.182014909896,2.820956438923459E-5,0.004293686232308266
150,877.982243126783,2.8176735572526466E-5,0.004321862967880792
151,876.7700531443447,2.8146930040088733E-5,0.004350009897920881
152,875.5450989308038,2.8227965401621216E-5,0.004378237863322502
153,874.3220185834455,2.793147611075694E-5,0.004406169339433259
154,873.0879108749177,2.8044479505467682E-5,0.004434213818938727
155,871.8435077780323,2.8143166408326997E-5,0.004462356985347054
156,870.6032725407226,2.8167320750359588E-5,0.004490524306097413
157,869.365869494364,2.8350119099071295E-5,0.004518874425196485
158,868.1204285640857,2.8150651655727284E-5,0.004547025076852212
159,866.8446441146706,2.8116023957197527E-5,0.004575141100809409
160,865.571291734772,2.8090109644071654E-5,0.00460323121045348
161,864.3041183652133,2.8009281768220388E-5,0.004631240492221701
162,863.0624854917195,2.7744005231386976E-5,0.004658984497453088
163,861.8154230885787,2.7922500014087343E-5,0.004686906997467175
164,860.571779821632,2.8185841624028728E-5,0.004715092839091203
165,859.3313027371017,2.8067958761467686E-5,0.004743160797852671
166,858.0970886781162,2.7771679446155086E-5,0.004770932477298826
167,856.8506077326946,2.771029588376769E-5,0.004798642773182593
168,855.5985212831857,2.7817991977954302E-5,0.004826460765160547
169,854.3535252929099,2.800365649170571E-5,0.004854464421652253
170,853.1075532259082,2.7574019229957576E-5,0.004882038440882211
171,851.8537852052795,2.747903424707275E-5,0.0049095174751292835
172,850.6071605642646,2.753663942923332E-5,0.004937054114558517
173,849.3592946558123,2.753913828582487E-5,0.004964593252844342
174,848.1210645261901,2.7659189659752236E-5,0.004992252442504094
175,846.8857359608098,2.744623557964705E-5,0.0050196986780837415
176,845.669126935637,2.72761688517094E-5,0.005046974846935451
177,844.4655986548097,2.734004314479717E-5,0.005074314890080248
178,843.2596511689634,2.727706967934151E-5,0.0051015919597595894
179,842.0573026186601,2.7354203896752492E-5,0.005128946163656342
180,840.8550588373027,2.768585229088728E-5,0.005156632015947229
181,839.6547220402417,2.766592996828305E-5,0.005184297945915513
182,838.4694804136392,2.7762064690674214E-5,0.005212060010606187
183,837.2686357129046,2.7801312529293698E-5,0.00523986132313548
184,836.0711212575728,2.7923190090094283E-5,0.005267784513225574
185,834.8951315642045,2.814793208362686E-5,0.005295932445309201
186,833.7156091634561,2.828276673296491E-5,0.005324215212042165
187,832.5291845101661,2.850103149866349E-5,0.0053527162435408285
188,831.3328202338886,2.862168835565074E-5,0.005381337931896479
189,830.1194483605167,2.8660143655610235E-5,0.00540999807555209
190,828.8989077178342,2.8703794005607817E-5,0.005438701869557697
191,827.6828190545967,2.8583433816147194E-5,0.005467285303373845
192,826.4885808324813,2.8273860802891276E-5,0.005495559164176736
193,825.2959927203682,2.8144358650547673E-5,0.005523703522827284
194,824.1248586201242,2.8346561716270207E-5,0.005552050084543554
195,822.9501192648595,2.828228714914567E-5,0.0055803323716926995
196,821.7493647060535,2.812506128679975E-5,0.005608457432979499
197,820.5668140009008,2.7931334693396273E-5,0.005636388767672896
198,819.3817063229989,2.811880159918022E-5,0.005664507569272076
199,818.2055172825588,2.8000665513506825E-5,0.005692508234785582
200,817.0401714172344,2.7797314843759745E-5,0.005720305549629342
201,815.874484457917,2.7563706730157276E-5,0.0057478692563595
202,814.6934359215578,2.7555223389418877E-5,0.005775424479748919
203,813.513765024239,2.7699335717485546E-5,0.005803123815466405
204,812.3341601795992,2.792027477776311E-5,0.005831044090244168
205,811.1696618852613,2.802094694956688E-5,0.005859065037193734
206,809.9821863658024,2.791156979843082E-5,0.005886976606992165
207,808.7949062073831,2.7987596031919226E-5,0.0059149642030240845
208,807.5970216212903,2.766647749246295E-5,0.005942630680516548
209,806.3921083899922,2.7668225118240008E-5,0.005970298905634787
210,805.1917669930012,2.768307369982942E-5,0.005997981979334617
211,804.0117457662682,2.786247408764834E-5,0.006025844453422266
212,802.8322596402274,2.7841707794976925E-5,0.006053686161217243
213,801.6340697778016,2.7727795005051978E-5,0.006081413956222295
214,800.4318297554051,2.784724642757633E-5,0.006109261202649871
215,799.2174468310855,2.7742215156858617E-5,0.00613700341780673
216,798.0118413026802,2.7965132946564552E-5,0.006164968550753294
217,796.815175186276,2.811379346460818E-5,0.006193082344217902
218,795.6166780877542,2.8216525320229254E-5,0.006221298869538132
219,794.4191577218304,2.8264014926228984E-5,0.00624956288446436
220,793.246143322749,2.8579819482473876E-5,0.006278142703946834
221,792.0751309245506,2.8540652023439107E-5,0.006306683355970274
222,790.8840091332169,2.8449533740543616E-5,0.0063351328897108174
223,789.6824093123896,2.8390863436910025E-5,0.006363523753147728
224,788.4872163711635,2.8595097198824632E-5,0.006392118850346552
225,787.2850010729122,2.8533680485258534E-5,0.006420652530831811
226,786.091111584072,2.837848484988471E-5,0.0064490310156816956
227,784.8909797367055,2.8582729909261652E-5,0.006477613745590957
228,783.6693525437889,2.8656674760026064E-5,0.006506270420350983
229,782.4786151265748,2.8726216065828405E-5,0.006534996636416811
230,781.2775517476769,2.872115109601622E-5,0.006563717787512828
231,780.0775654434887,2.8812811825778115E-5,0.006592530599338606
232,778.8972925337159,2.9136162017278195E-5,0.006621666761355884
233,777.7295905194829,2.9123696032852972E-5,0.0066507904573887364
234,776.55954239077,2.8849320376073812E-5,0.00667963977776481
235,775.3702679192796,2.8583896514216814E-5,0.006708223674279027
236,774.1863773770773,2.8395233761956625E-5,0.006736618908040983
237,772.9934354826833,2.8245974186777642E-5,0.006764864882227761
238,771.804231093993,2.807818363234798E-5,0.006792943065860109
239,770.6395636200219,2.808162203974637E-5,0.006821024687899855
240,769.4939032803708,2.8228020911005503E-5,0.006849252708810861
241,768.3488051310292,2.8118281085240252E-5,0.006877370989896101
242,767.2140590001097,2.817659160730838E-5,0.006905547581503409
243,766.0697107780676,2.810132902609851E-5,0.006933648910529508
244,764.9091097036646,2.8075568743630237E-5,0.006961724479273138
245,763.7551417336964,2.7895731359694685E-5,0.006989620210632833
246,762.5993251814529,2.7835948116292064E-5,0.007017456158749126
247,761.4579852293801,2.7922237860422115E-5,0.007045378396609548
248,760.3126325087054,2.785369084658065E-5,0.007073232087456129
249,759.1719811364964,2.7740609644467825E-5,0.0071009726971005965
250,758.0624777010272,2.7901824176785673E-5,0.007128874521277382
251,756.9471072481118,2.8142551895501775E-5,0.0071570170731728834
252,755.8254458753626,2.814756330614559E-5,0.007185164636479029
253,754.7034468251792,2.787800244576469E-5,0.0072130426389247935
254,753.5644194134758,2.788014890516874E-5,0.007240922787829962
255,752.3985758233496,2.7799657440965196E-5,0.007268722445270928
256,751.2233069249569,2.7881868823818926E-5,0.007296604314094747
257,750.0413700484344,2.789042105456535E-5,0.007324494735149312
258,748.8545246836693,2.8002464840199536E-5,0.0073524971999895114
259,747.6791138046942,2.8141660043975937E-5,0.007380638860033487
260,746.5164873298495,2.8076850399118352E-5,0.007408715710432606
261,745.3395045012206,2.8196271079493358E-5,0.007436911981512099
262,744.1594575910533,2.8363953253518113E-5,0.007465275934765617
263,742.959418664436,2.8471547241660104E-5,0.007493747482007277
264,741.7568942793463,2.8483267966040946E-5,0.007522230749973318
265,740.5705232049963,2.866913509369136E-5,0.00755089988506701
266,739.3783340616565,2.8928355830077837E-5,0.007579828240897088
267,738.2011109038917,2.8933790996690635E-5,0.007608762031893779
268,737.021718317884,2.8988780415438644E-5,0.007637750812309218
269,735.8557716131361,2.892989546685437E-5,0.0076666807077760725
270,734.6707072143221,2.8864580088253677E-5,0.007695545287864326
271,733.5024280942375,2.8970883179828928E-5,0.007724516171044155
272,732.3245200988582,2.887969343696321E-5,0.007753395864481118
273,731.1498306150196,2.8996916597968903E-5,0.007782392781079088
274,730.0022977212019,2.899102121188798E-5,0.007811383802290976
275,728.8415015127596,2.9168251543478988E-5,0.007840552053834455
276,727.7068125646363,2.8741273547862643E-5,0.007869293327382317
277,726.5761417261133,2.86520359422891E-5,0.007897945363324606
278,725.4290924326114,2.8892571573056108E-5,0.007926837934897662
279,724.2841226208461,2.906448129366676E-5,0.007955902416191329
280,723.1281021447406,2.9072881256264877E-5,0.007984975297447594
281,721.9828910364607,2.894048252915068E-5,0.008013915779976745
282,720.8634190079401,2.9170864222618003E-5,0.008043086644199362
283,719.7253859843379,2.928660599733449E-5,0.008072373250196696
284,718.5983176971909,2.910481757236217E-5,0.008101478067769058
285,717.4647339082082,2.9425438033755925E-5,0.008130903505802815
286,716.3219857996801,2.9499448887665194E-5,0.00816040295469048
287,715.1794058582591,2.9584947515267313E-5,0.008189987902205747
288,714.0254694611064,2.963837181866945E-5,0.008219626274024417
289,712.879903616602,2.9887657723674573E-5,0.008249513931748092
290,711.7218644256982,2.9839285788754265E-5,0.008279353217536846
291,710.5469266277933,3.0010006687718012E-5,0.008309363224224564
292,709.3638022462545,2.9852081799161233E-5,0.008339215306023726
293,708.1834783235569,2.985721837463487E-5,0.008369072524398362
294,707.0024946384767,2.964683875836062E-5,0.008398719363156722
295,705.8105707541405,2.9361185543834212E-5,0.008428080548700556
296,704.6230954065601,2.9383084973937385E-5,0.008457463633674493
297,703.4243410754824,2.9271045288439396E-5,0.008486734678962932
298,702.2205804924907,2.9202949641898158E-5,0.00851593762860483
299,701.0244206120038,2.9321748863939375E-5,0.008545259377468771
300,699.836851419072,2.9067589567845476E-5,0.008574326967036616
301,698.6887298709063,2.9252843687112053E-5,0.008603579810723728
302,697.5652314918503,2.9268200957834617E-5,0.008632848011681562
303,696.4567929599439,2.9061557079046428E-5,0.008661909568760609
304,695.3381620492987,2.911918867290105E-5,0.00869102875743351
305,694.2081187147433,2.9095650577970963E-5,0.008720124408011481
306,693.0394167484844,2.868105647491508E-5,0.008748805464486397
307,691.8781568582322,2.8616658950454554E-5,0.008777422123436853
308,690.7047705569619,2.8357683851017775E-5,0.00880577980728787
309,689.5206841260737,2.851423858194186E-5,0.008834294045869813
