#t,ESS,tempDiff,temp
0,999.9999999999848,0.0,0.0
1,999.989438599654,1.9960436107807495E-5,1.9960436107807495E-5
2,999.9580171384316,1.985661468532119E-5,3.9817050793128684E-5
3,999.90604862918,1.981700762247582E-5,5.9634058415604505E-5
4,999.8338124075499,1.9699714432614172E-5,7.933377284821867E-5
5,999.7420221773469,1.971623763920927E-5,9.905001048742794E-5
6,999.6304818715263,1.9771097592774676E-5,1.1882110808020262E-4
7,999.4999118140685,1.9778242610833288E-5,1.385993506910359E-4
8,999.3503424857589,1.9833217371739872E-5,1.584325680627758E-4
9,999.1831909751002,1.9590417352689948E-5,1.7802298541546574E-4
10,998.9967022114718,1.9596685684437056E-5,1.976196710999028E-4
11,998.7919687130882,1.951547950790333E-5,2.1713515060780612E-4
12,998.567790819879,1.9557241131378403E-5,2.3669239173918454E-4
13,998.3279016884342,1.9488158674544346E-5,2.5618055041372887E-4
14,998.0685600861619,1.9459517781177557E-5,2.7564006819490644E-4
15,997.7887820087634,1.9463354480214245E-5,2.9510342267512066E-4
16,997.4918673043444,1.9494600586165314E-5,3.14598023261286E-4
17,997.175953376152,1.954636519018255E-5,3.3414438845146856E-4
18,996.8423619008369,1.954729373782671E-5,3.536916821892953E-4
19,996.4895847425254,1.954019428786353E-5,3.7323187647715883E-4
20,996.1180251321281,1.956941153880451E-5,3.928012880159633E-4
21,995.7340166280861,1.947973499983645E-5,4.122810230157998E-4
22,995.3313314841073,1.957212030935174E-5,4.3185314332515155E-4
23,994.9151966249799,1.9488086784029324E-5,4.5134123010918086E-4
24,994.4858182524199,1.947383376243172E-5,4.7081506387161256E-4
25,994.0431283267344,1.950965004742648E-5,4.90324713919039E-4
26,993.5806977150997,1.9526973756660008E-5,5.09851687675699E-4
27,993.1005872443756,1.952244032206989E-5,5.29374127997769E-4
28,992.6078606193238,1.9445068156782966E-5,5.488191961545519E-4
29,992.1058814245976,1.93505280775065E-5,5.681697242320584E-4
30,991.5899553643443,1.941614130678328E-5,5.875858655388417E-4
31,991.0598323767925,1.942295576836754E-5,6.070088213072092E-4
32,990.5117396767258,1.951699645445722E-5,6.265258177616665E-4
33,989.9477217914251,1.9392942822298562E-5,6.45918760583965E-4
34,989.3693940237047,1.9297230763070828E-5,6.652159913470359E-4
35,988.7859331233813,1.9217716263559774E-5,6.844337076105956E-4
36,988.1787458745413,1.9288061247014366E-5,7.0372176885761E-4
37,987.5537686790153,1.939657239902294E-5,7.231183412566329E-4
38,986.9133775352566,1.941144287528284E-5,7.425297841319158E-4
39,986.2549540840494,1.94627633971733E-5,7.619925475290891E-4
40,985.5876802799934,1.9340495425407592E-5,7.813330429544967E-4
41,984.9028452514771,1.9450222435652202E-5,8.007832653901489E-4
42,984.2050124400241,1.958130784445928E-5,8.203645732346082E-4
43,983.485004487754,1.961523473204039E-5,8.399798079666486E-4
44,982.7522691474248,1.9643024058841943E-5,8.596228320254905E-4
45,981.9983105077536,1.9816919936022495E-5,8.79439751961513E-4
46,981.223706524903,1.989403842631842E-5,8.993337903878315E-4
47,980.4325737208013,1.9944930879051018E-5,9.192787212668825E-4
48,979.6214388580601,2.0031326232128726E-5,9.393100474990113E-4
49,978.8023429269566,1.9971179344075993E-5,9.592812268430873E-4
50,977.9699079274019,1.9963692395314306E-5,9.792449192384015E-4
51,977.1418228813944,1.9816327819720386E-5,9.990612470581219E-4
52,976.3033849127091,1.979949406184087E-5,0.0010188607411199628
53,975.4557068364458,1.9639743647089843E-5,0.0010385004847670526
54,974.5836823503157,1.978999670914272E-5,0.0010582904814761952
55,973.7074619580127,1.9586982597745125E-5,0.0010778774640739404
56,972.8210409355003,1.956102749211118E-5,0.0010974384915660516
57,971.9334306048199,1.948545036511941E-5,0.001116923941931171
58,971.039929842521,1.932654477237446E-5,0.0011362504867035454
59,970.1326544706749,1.934903460015413E-5,0.0011555995213036996
60,969.2074104212836,1.9366315889734056E-5,0.0011749658371934338
61,968.2710614980068,1.934450930381415E-5,0.0011943103464972479
62,967.3145590053065,1.9355732318630717E-5,0.0012136660788158785
63,966.3458162108082,1.941923760748299E-5,0.0012330853164233616
64,965.3640588750416,1.94468738215883E-5,0.0012525321902449498
65,964.3733127995972,1.9451440215288962E-5,0.0012719836304602387
66,963.3750872016103,1.9408050086063926E-5,0.0012913916805463025
67,962.3643159276223,1.943253459546415E-5,0.0013108242151417667
68,961.3548521837124,1.9324681147747746E-5,0.0013301488962895146
69,960.3284310860838,1.9435759117265175E-5,0.0013495846554067797
70,959.2743903834531,1.957489156922977E-5,0.0013691595469760094
71,958.2095138785271,1.964081253957763E-5,0.001388800359515587
72,957.1284968299458,1.9559603284430116E-5,0.001408359962800017
73,956.0394842441146,1.9504452563695485E-5,0.0014278644153637127
74,954.9551340745951,1.9414509232381276E-5,0.0014472789245960939
75,953.8648377317782,1.943316344688156E-5,0.0014667120880429755
76,952.7724988079176,1.9387692294614633E-5,0.0014860997803375902
77,951.6664372992034,1.9387932990692614E-5,0.0015054877133282827
78,950.5408379139235,1.942305532783999E-5,0.0015249107686561227
79,949.4124016146143,1.9460909072831115E-5,0.0015443716777289538
80,948.2715169934637,1.9420764891028262E-5,0.0015637924426199822
81,947.099246279606,1.9550988377453853E-5,0.001583343430997436
82,945.9201215996809,1.9478314858475032E-5,0.001602821745855911
83,944.7346546983268,1.9512923143630544E-5,0.0016223346689995415
84,943.5329667336831,1.9609119046679068E-5,0.0016419437880462206
85,942.3238686561007,1.953699046707237E-5,0.001661480778513293
86,941.1029073342972,1.9470936621263805E-5,0.0016809517151345568
87,939.8684277848952,1.956102150062226E-5,0.001700512736635179
88,938.6233029938907,1.9677906071322607E-5,0.0017201906427065016
89,937.3677043902696,1.9708824354139555E-5,0.0017398994670606413
90,936.1249541326071,1.957310615351607E-5,0.0017594725732141573
91,934.874443697005,1.958980856149627E-5,0.0017790623817756535
92,933.6181718546052,1.9524647443500256E-5,0.0017985870292191537
93,932.3514487961244,1.9454223547721764E-5,0.0018180412527668754
94,931.0749470257375,1.9391148551202597E-5,0.0018374324013180781
95,929.7900483073474,1.922986738207173E-5,0.0018566622687001498
96,928.4921320673352,1.9229982775503608E-5,0.0018758922514756533
97,927.167989349554,1.9361317878216333E-5,0.0018952535693538696
98,925.8210129240113,1.947634825448219E-5,0.0019147299176083517
99,924.4635700388608,1.9421516518531975E-5,0.0019341514341268836
100,923.1163235815216,1.9283153080615277E-5,0.0019534345872074988
101,921.7596178875979,1.9255614592120737E-5,0.0019726902017996196
102,920.406462186997,1.9181891595165128E-5,0.0019918720933947845
103,919.0585256614261,1.9069295748230163E-5,0.0020109413891430147
104,917.7326886765742,1.893991109150162E-5,0.0020298813002345164
105,916.4205223785582,1.887301226561017E-5,0.0020487543125001268
106,915.1024387681217,1.887339255940998E-5,0.0020676277050595366
107,913.7634288249801,1.9029231591330064E-5,0.0020866569366508668
108,912.4328909015999,1.9029208024948538E-5,0.0021056861446758154
109,911.1121467088359,1.9003387037572216E-5,0.0021246895317133876
110,909.7861692853432,1.8896853761085778E-5,0.0021435863854744734
111,908.4387374028952,1.89419562119843E-5,0.0021625283416864577
112,907.0834530798995,1.8979541253968984E-5,0.0021815078829404266
113,905.7302018115437,1.8938731146450296E-5,0.002200446614086877
114,904.363697322395,1.8992747709587988E-5,0.002219439361796465
115,903.0058117894059,1.8880069011897643E-5,0.0022383194308083624
116,901.6562607306764,1.896635006705679E-5,0.0022572857808754194
117,900.2965142292813,1.9125246509434773E-5,0.0022764110273848543
118,898.9373195856027,1.903412126481134E-5,0.0022954451486496656
119,897.5775851686045,1.9067477875427234E-5,0.002314512626525093
120,896.2147606624053,1.915014307380595E-5,0.0023336627695988987
121,894.8307862582592,1.9123270169057925E-5,0.0023527860397679567
122,893.4363584443755,1.9235224032071267E-5,0.002372021263800028
123,892.0281796979735,1.9289810006709948E-5,0.0023913110738067378
124,890.6156080932058,1.9182052109975156E-5,0.002410493125916713
125,889.2080215179628,1.913259304245306E-5,0.002429625718959166
126,887.8163658395771,1.911252922177947E-5,0.0024487382481809456
127,886.4417140564109,1.9009516973004577E-5,0.0024677477651539504
128,885.0720549841442,1.8993484019610622E-5,0.002486741249173561
129,883.7519915727327,1.882130686416139E-5,0.002505562556037722
130,882.4407643042902,1.87377502390085E-5,0.0025243003062767307
131,881.1149121112571,1.8782766288413285E-5,0.002543083072565144
132,879.8006289459529,1.8820082769261574E-5,0.0025619031553344054
133,878.4807732534443,1.8736656293130415E-5,0.002580639811627536
134,877.1571999796425,1.8743059261903138E-5,0.002599382870889439
135,875.8358290016326,1.8681426603492755E-5,0.0026180642974929316
136,874.5017999835126,1.8781591971051854E-5,0.0026368458894639834
137,873.1668481580867,1.875875034387445E-5,0.002655604639807858
138,871.8254492877436,1.883125571115065E-5,0.0026744358955190085
139,870.4478064811287,1.8969914915897415E-5,0.002693405810434906
140,869.0746539867521,1.896386182753151E-5,0.0027123696722624376
141,867.7453614826991,1.8961848812698033E-5,0.0027313315210751358
142,866.4071668853668,1.8832017474553666E-5,0.0027501635385496896
143,865.0697164031349,1.8850576243312108E-5,0.0027690141147930017
144,863.7249455153681,1.8928096785654665E-5,0.0027879422115786564
145,862.3404776694003,1.8941449385929223E-5,0.0028068836609645856
146,860.9739883536838,1.8833150569159497E-5,0.002825716811533745
147,859.5725814501469,1.888241882703445E-5,0.0028445992303607792
148,858.1796629854604,1.8919581440995485E-5,0.002863518811801775
149,856.7611670864841,1.9137329249284825E-5,0.0028826561410510597
150,855.3408220841769,1.9074922647239718E-5,0.0029017310636982995
151,853.9129589420887,1.9111177263301846E-5,0.0029208422409616012
152,852.4709312242144,1.9224454439333157E-5,0.0029400666954009346
153,851.0055734154764,1.932688543218154E-5,0.0029593935808331162
154,849.5090732106804,1.935219974890698E-5,0.002978745780582023
155,848.0036851672146,1.9564708716598877E-5,0.002998310489298622
156,846.4797787114886,1.9692051179833924E-5,0.003018002540478456
157,844.9652262411721,1.9618309091819018E-5,0.003037620849570275
158,843.4572558006404,1.9559825405756694E-5,0.0030571806749760313
159,841.93734346136,1.959328937532252E-5,0.0030767739643513536
160,840.3837962000505,1.9521708380981876E-5,0.0030962956727323353
161,838.8090948729106,1.948144199388232E-5,0.003115777114726218
162,837.2356045872422,1.9383361839249346E-5,0.0031351604765654673
163,835.656140506816,1.9360525666594716E-5,0.003154521002232062
164,834.06561290316,1.920261186419333E-5,0.0031737236140962554
165,832.4460735813258,1.93073399643803E-5,0.0031930309540606355
166,830.8361362303114,1.9354744723087487E-5,0.003212385698783723
167,829.2152964751591,1.9388029859498756E-5,0.003231773728643222
168,827.5867472210906,1.9358651832833782E-5,0.003251132380476056
169,825.9513248180969,1.9296770222693757E-5,0.0032704291506987495
170,824.3301010522309,1.9370147295853424E-5,0.003289799297994603
171,822.6741170551792,1.9336885586432067E-5,0.0033091361835810348
172,821.0168849919012,1.921594906214088E-5,0.0033283521326431757
173,819.3618425419747,1.9229656355798036E-5,0.003347581788998974
174,817.7129963616375,1.941317383243849E-5,0.0033669949628314126
175,816.0435927935351,1.9461211910594797E-5,0.0033864561747420073
176,814.3598715386797,1.9512657962783184E-5,0.0034059688327047906
177,812.6841565230616,1.9459060191782264E-5,0.003425427892896573
178,811.0081817853105,1.9462629720382797E-5,0.0034448905226169557
179,809.3305874066024,1.9482043785916703E-5,0.0034643725664028724
180,807.6490608685865,1.9429684521171635E-5,0.003483802250924044
181,805.9598738438892,1.9288678056523322E-5,0.0035030909289805673
182,804.2319872720866,1.951132309738519E-5,0.0035226022520779524
183,802.4662959388667,1.9566069138905876E-5,0.0035421683212168583
184,800.7100872915299,1.9515296694700894E-5,0.003561683617911559
185,798.9441612594728,1.9562932755102713E-5,0.0035812465506666617
186,797.1666373701722,1.9558449758177432E-5,0.0036008050004248393
187,795.371307654238,1.9685247308659227E-5,0.0036204902477334987
188,793.5477995811611,1.9693732581919897E-5,0.0036401839803154186
189,791.7159672854358,1.9607807618161245E-5,0.00365979178793358
190,789.861202401746,1.9706100332037343E-5,0.003679497888265617
191,788.0164830578092,1.9460826451646356E-5,0.0036989587147172637
192,786.11006893904,1.9513314431591164E-5,0.0037184720291488548
193,784.1891581830788,1.9586804096208436E-5,0.003738058833245063
194,782.2655029020146,1.9610410924101834E-5,0.003757669244169165
195,780.3537057856846,1.975314158272912E-5,0.003777422385751894
196,778.4487121048161,1.9966435652834068E-5,0.0037973888214047277
197,776.542394281933,1.9869999783943333E-5,0.003817258821188671
198,774.621360487963,1.9938492992943094E-5,0.003837197314181614
199,772.6991764644279,2.0052615013768906E-5,0.003857249929195383
200,770.8427562042028,1.991468847100435E-5,0.0038771646176663874
201,769.0615943251119,1.9855345763901426E-5,0.003897019963430289
202,767.3046119477646,1.9630504753926566E-5,0.003916650468184215
203,765.5426452963306,1.9639885767941643E-5,0.003936290353952157
204,763.7736815805335,1.972393283768489E-5,0.003956014286789842
205,761.9973155470692,1.972264042566693E-5,0.003975736927215509
206,760.2294205453868,1.967244934580025E-5,0.003995409376561309
207,758.461925240364,1.9710794760504196E-5,0.004015120171321813
208,756.6862283879466,1.9784298561032633E-5,0.004034904469882846
209,754.930266564783,1.9923164366984096E-5,0.00405482763424983
210,753.1916955982006,1.993913468003987E-5,0.00407476676892987
211,751.4771206521183,2.0056527648626837E-5,0.004094823296578497
212,749.8141456354945,1.9684310919870708E-5,0.0041145076074983675
213,748.142699004816,1.954654143249914E-5,0.004134054148930867
214,746.4953061429326,1.9567143949722155E-5,0.004153621292880588
215,744.8126657194515,1.9575870643296243E-5,0.0041731971635238846
216,743.1122718471898,1.967727358370091E-5,0.0041928744371075855
217,741.432109612931,1.9753383170567218E-5,0.004212627820278153
218,739.7345303645004,1.9741434977963567E-5,0.004232369255256116
219,738.0580722653142,1.97578066200793E-5,0.004252127061876196
220,736.3997025583953,1.965761957072147E-5,0.004271784681446917
221,734.7748320676427,1.9537945366573943E-5,0.004291322626813491
222,733.1365991494298,1.9667762317589025E-5,0.0043109903891310804
223,731.5407157080924,1.970565518165341E-5,0.004330696044312734
224,729.9504939674063,1.9819564068838792E-5,0.004350515608381573
225,728.3843579772933,1.973452211310875E-5,0.004370250130494681
226,726.7722065274369,1.9609504408845748E-5,0.004389859634903527
227,725.1906233211351,1.9573121617738392E-5,0.004409432756521265
228,723.6161856711873,1.960332138791295E-5,0.004429036077909178
229,722.041269547216,1.980683355643497E-5,0.004448842911465613
230,720.5548009101395,1.9709831195406232E-5,0.004468552742661019
231,719.0339423252988,1.9990924892407368E-5,0.004488543667553427
232,717.4947861532357,1.9971834086621642E-5,0.004508515501640048
233,715.959509822093,1.9892777727805925E-5,0.004528408279367855
234,714.4226957102092,1.9774563612274335E-5,0.004548182842980129
235,712.8715246220955,1.97844789342927E-5,0.004567967321914421
236,711.3036405626183,1.977887270378708E-5,0.004587746194618208
237,709.7357707879453,1.989861090352205E-5,0.00460764480552173
238,708.19894560042,1.974148740869003E-5,0.00462738629293042
239,706.6834811996322,1.9739779066918648E-5,0.004647126071997339
240,705.1795569283809,1.9715881066403233E-5,0.004666841953063742
241,703.6714011481606,1.972268053242741E-5,0.004686564633596169
242,702.1483163817022,1.9691492009082034E-5,0.004706256125605252
243,700.6084451103015,1.9690877584687814E-5,0.00472594700318994
244,699.0885008267404,1.9578837978431773E-5,0.0047455258411683715
245,697.5680182745078,1.959927115370853E-5,0.00476512511232208
246,696.0818977328044,1.966355361888881E-5,0.004784788665940969
247,694.6080704940601,1.9871417136403266E-5,0.004804660083077372
248,693.126549619156,1.9872999790722056E-5,0.004824533082868094
249,691.6280798566901,1.9894914822220638E-5,0.004844427997690315
250,690.1092496075428,2.0017816247650337E-5,0.004864445813937965
251,688.6215553004799,1.9772461171060842E-5,0.004884218275109026
252,687.1288258369948,1.9762622851148975E-5,0.004903980897960175
253,685.6414217217335,1.983846968981212E-5,0.004923819367649987
254,684.2071784618047,1.9733423907603124E-5,0.004943552791557591
255,682.763651057794,1.9704088524246415E-5,0.004963256880081837
256,681.3112433079332,1.9738239243090447E-5,0.004982995119324928
257,679.8523116864536,1.9725137254876635E-5,0.005002720256579805
258,678.4184806796043,1.9681002688692757E-5,0.005022401259268497
259,676.9842902082938,1.9591613573698566E-5,0.005041992872842196
260,675.5859912487547,1.9556811885927097E-5,0.0050615496847281225
261,674.1759881317888,1.9552433910093086E-5,0.005081102118638215
262,672.7636560488542,1.9602676542231362E-5,0.005100704795180447
263,671.3504246840024,1.950700851916644E-5,0.005120211803699613
264,669.8933246760137,1.9447703058509683E-5,0.005139659506758123
265,668.5002835345721,1.9293786250920266E-5,0.005158953293009043
266,667.1103522318439,1.9216108713250923E-5,0.005178169401722294
267,665.6984156162126,1.9281153555257E-5,0.0051974505552775515
268,664.3015043991791,1.9197035649827145E-5,0.005216647590927379
269,662.847624404207,1.928529874657138E-5,0.00523593288967395
270,661.4020413762524,1.9270027720138793E-5,0.005255202917394089
271,659.9318138892614,1.9321430159171348E-5,0.0052745243475532605
272,658.451735851072,1.9417893381977595E-5,0.005293942240935238
273,656.9574773817023,1.956319632603834E-5,0.005313505437261276
274,655.486452022979,1.9485087972425288E-5,0.005332990525233701
275,654.0053156700003,1.927831566457903E-5,0.00535226884089828
276,652.5817838331672,1.918515581727917E-5,0.005371453996715559
277,651.1953231230787,1.9279279027844398E-5,0.005390733275743404
278,649.7346383709029,1.9480762213694647E-5,0.005410214037957098
279,648.2422927212034,1.951245730655307E-5,0.0054297264952636514
280,646.7583147318298,1.951837678789897E-5,0.0054492448720515506
281,645.275068378645,1.965921389156557E-5,0.0054689040859431165
282,643.7727674153928,1.971459588682636E-5,0.005488618681829943
283,642.2316046581062,1.9701448787818174E-5,0.005508320130617761
284,640.7321548247056,1.9629331219687407E-5,0.005527949461837448
285,639.2232107174227,1.968494079024348E-5,0.005547634402627692
286,637.7058798167996,1.9577406856039282E-5,0.005567211809483731
287,636.1592440383895,1.9555739880845628E-5,0.005586767549364577
288,634.622469989549,1.9521958067655773E-5,0.005606289507432232
289,633.104631368978,1.9668385358056113E-5,0.005625957892790288
290,631.5891985040171,1.9584543583107835E-5,0.005645542436373396
291,630.0986774576598,1.9619231757156553E-5,0.005665161668130552
292,628.6980300213032,1.9531559655755004E-5,0.0056846932277863065
293,627.2898068294139,1.9629266193860318E-5,0.005704322493980167
294,625.8526689721339,1.9689493571345904E-5,0.005724011987551513
295,624.3919675387111,1.9588960791413276E-5,0.0057436009483429265
296,622.9069577708577,1.9668135921807262E-5,0.005763269084264734
297,621.3948534214622,1.9684196480343673E-5,0.005782953280745078
298,619.8878562944352,1.966934780270798E-5,0.005802622628547785
299,618.3410577119528,1.9714303586260543E-5,0.005822336932134046
300,616.8005682969131,1.9694967085500248E-5,0.005842031899219546
301,615.2577018574231,1.9687989723445184E-5,0.005861719888942992
302,613.693670086979,1.987038182010453E-5,0.005881590270763096
303,612.1415922597104,1.984305181413565E-5,0.005901433322577232
304,610.6112756087499,1.9789842221893843E-5,0.0059212231647991255
305,609.0704639215887,1.974731972063186E-5,0.005940970484519757
306,607.5552533048608,1.9542400130845097E-5,0.005960512884650602
307,606.0500770308728,1.9670615824088375E-5,0.00598018350047469
308,604.5741341681958,1.9434252875127587E-5,0.005999617753349818
309,603.0995459635843,1.948859885063623E-5,0.006019106352200454
