#t,ESS,tempDiff,temp
0,200.00000000000065,0.0,0.0
1,199.99979999999994,1.0709917723968278E-5,1.0709917723968278E-5
2,199.99920615513633,1.0654691528996562E-5,2.1364609252964838E-5
3,199.9982232725393,1.058876761576E-5,3.195337686872484E-5
4,199.99686997154032,1.057062251822976E-5,4.252399938695459E-5
5,199.9951464858005,1.04565080160403E-5,5.298050740299489E-5
6,199.99305752254693,1.0314202490410795E-5,6.329470989340568E-5
7,199.99064303282046,1.0165202135620372E-5,7.345991202902605E-5
8,199.9878594688081,1.012980371417178E-5,8.358971574319783E-5
9,199.98473382435935,1.0138277446141367E-5,9.37279931893392E-5
10,199.98123842402708,1.0139695697582884E-5,1.0386768888692208E-4
11,199.97741682182436,9.918232908735672E-6,1.1378592179565774E-4
12,199.97326828621812,9.850640055808529E-6,1.2363656185146628E-4
13,199.96877541530537,9.747285988564065E-6,1.3338384784003035E-4
14,199.96392575318944,9.873353898032903E-6,1.4325720173806325E-4
15,199.95873933342725,1.0009261231085244E-5,1.532664629691485E-4
16,199.95319782703677,1.0088190793235649E-5,1.6335465376238415E-4
17,199.9473309567342,1.0088808866886974E-5,1.7344346262927111E-4
18,199.9411855522409,1.0282878947610015E-5,1.8372634157688114E-4
19,199.93481330530923,1.0107676972035282E-5,1.9383401854891643E-4
20,199.92812028335516,1.0175930225224842E-5,2.040099487741413E-4
21,199.92111466424245,1.0134369753063238E-5,2.1414431852720452E-4
22,199.9138289957887,1.0060449897460015E-5,2.2420476842466454E-4
23,199.9062991846677,1.012108253954424E-5,2.3432585096420878E-4
24,199.89844652108528,1.0212445984099613E-5,2.4453829694830837E-4
25,199.89033012475795,1.0313376552223863E-5,2.5485167350053226E-4
26,199.88199277741396,1.0484598930564542E-5,2.653362724310968E-4
27,199.87334919853734,1.05367747213949E-5,2.758730471524917E-4
28,199.86460134884996,1.0703769373218025E-5,2.865768165257097E-4
29,199.85548888370454,1.0748435439379931E-5,2.973252519650896E-4
30,199.84621084577486,1.055635466155328E-5,3.078816066266429E-4
31,199.83676222626593,1.0564663685503164E-5,3.1844627031214605E-4
32,199.8272434771437,1.0128388057277357E-5,3.285746583694234E-4
33,199.81744538321206,1.0204137723540123E-5,3.3877879609296355E-4
34,199.80733677669085,1.018035947057034E-5,3.489591555635339E-4
35,199.7969751858072,1.0128941231812639E-5,3.590880967953465E-4
36,199.7864184645766,1.0069305689408492E-5,3.69157402484755E-4
37,199.77579534213123,1.0290981835449294E-5,3.794483843202043E-4
38,199.76499115905173,9.990531853909137E-6,3.8943891617411344E-4
39,199.75409165236437,1.0087341153561278E-5,3.995262573276747E-4
40,199.74293558821435,9.90685710560222E-6,4.0943311443327694E-4
41,199.731572138313,9.953233356562417E-6,4.1938634778983935E-4
42,199.72009167488412,9.85522768402614E-6,4.292415754738655E-4
43,199.70863345385237,9.980029693651173E-6,4.392216051675167E-4
44,199.6967850170149,1.0038253401827783E-5,4.4925985856934445E-4
45,199.68487903299328,9.998924611207002E-6,4.5925878318055143E-4
46,199.67286030101982,9.671786289981529E-6,4.6893056947053296E-4
47,199.66062191133142,9.593675285445157E-6,4.785242447559781E-4
48,199.64820946582628,9.737790618910902E-6,4.88262035374889E-4
49,199.63571621455858,9.833894176572528E-6,4.980959295514616E-4
50,199.62281581053452,9.693169281429096E-6,5.077890988328907E-4
51,199.60951874327907,9.712161592786814E-6,5.175012604256775E-4
52,199.5960980066739,9.695855501054313E-6,5.271971159267318E-4
53,199.58278074919912,9.62123763828439E-6,5.368183535650162E-4
54,199.56923476683593,9.691178601483842E-6,5.465095321665E-4
55,199.55543621648908,9.767081675146984E-6,5.56276613841647E-4
56,199.54153323820412,9.768195556326183E-6,5.660448093979732E-4
57,199.52772425420494,9.582492501432497E-6,5.756273018994056E-4
58,199.513660711204,9.644737735731873E-6,5.852720396351375E-4
59,199.499340900334,9.455146992087481E-6,5.947271866272249E-4
60,199.48492274303365,9.372837733735352E-6,6.041000243609603E-4
61,199.47038850442172,9.246528418405525E-6,6.133465527793659E-4
62,199.45547760469861,9.154678439094969E-6,6.225012312184608E-4
63,199.44067317756785,9.029433042674891E-6,6.315306642611357E-4
64,199.42545235256296,8.929865862109673E-6,6.404605301232454E-4
65,199.40970314950187,9.081083041614075E-6,6.495416131648594E-4
66,199.39353682012256,9.111498379660015E-6,6.586531115445194E-4
67,199.37683042086124,9.138013759436342E-6,6.677911253039557E-4
68,199.36001293825498,9.004909749999686E-6,6.767960350539554E-4
69,199.34293869068048,8.869113840424616E-6,6.8566514889438E-4
70,199.3254674928642,8.923164903679652E-6,6.945883137980597E-4
71,199.30780925488426,8.939687580430096E-6,7.035280013784898E-4
72,199.2902422324294,8.986314281576964E-6,7.125143156600668E-4
73,199.27243969799804,9.010160315128055E-6,7.215244759751949E-4
74,199.25433028228124,8.858135994967322E-6,7.303826119701622E-4
75,199.2359806373866,8.875623476027078E-6,7.392582354461893E-4
76,199.21755553069278,8.534683970163953E-6,7.477929194163532E-4
77,199.1989234454069,8.573682208895355E-6,7.563666016252486E-4
78,199.18041849640736,8.655219222874394E-6,7.65021820848123E-4
79,199.16144259495005,8.671547297906167E-6,7.736933681460292E-4
80,199.14247235914968,8.734250734124079E-6,7.824276188801532E-4
81,199.12317989393563,8.894950589149257E-6,7.913225694693025E-4
82,199.10361787492016,8.875735750258352E-6,8.001983052195608E-4
83,199.08412189463638,8.678443710014617E-6,8.088767489295754E-4
84,199.0646625287246,8.787362212302284E-6,8.176641111418777E-4
85,199.04488724464974,8.970015122140298E-6,8.266341262640179E-4
86,199.02506559396542,8.841747466513591E-6,8.354758737305315E-4
87,199.00554583944935,9.167631021367253E-6,8.446435047518988E-4
88,198.9855585187956,9.212527899665119E-6,8.538560326515639E-4
89,198.9655547931964,9.180350683151919E-6,8.630363833347158E-4
90,198.94549324951552,9.212984237642892E-6,8.722493675723587E-4
91,198.92534502817927,9.288109407523886E-6,8.815374769798826E-4
92,198.9049479503985,9.374969719152559E-6,8.909124466990352E-4
93,198.88441675323395,9.187230222358503E-6,9.000996769213936E-4
94,198.863741298269,9.302672368023603E-6,9.094023492894172E-4
95,198.84349538449007,9.291036193203424E-6,9.186933854826206E-4
96,198.82270420684682,9.23505709250596E-6,9.279284425751266E-4
97,198.80170245094104,9.176369625270299E-6,9.371048122003969E-4
98,198.78088301109156,9.077347638852919E-6,9.461821598392499E-4
99,198.75954298474016,9.11297072537108E-6,9.55295130564621E-4
100,198.7386664636442,9.151841092374847E-6,9.644469716569958E-4
101,198.7176737926498,9.036829616889153E-6,9.73483801273885E-4
102,198.69684891759894,8.809282369375403E-6,9.822930836432603E-4
103,198.67488115083037,8.783153565018448E-6,9.910762372082787E-4
104,198.652754283034,8.554213257011844E-6,9.996304504652906E-4
105,198.63000174156107,8.499031342858907E-6,0.0010081294818081496
106,198.60702718846136,8.47389680621083E-6,0.0010166033786143604
107,198.58373853537896,8.55426652699465E-6,0.0010251576451413551
108,198.56082344566036,8.670657115119732E-6,0.001033828302256475
109,198.53793036500608,8.839350580857047E-6,0.0010426676528373319
110,198.51472605207843,8.901368698680004E-6,0.001051569021536012
111,198.4915857180987,8.768153473462905E-6,0.0010603371750094747
112,198.46788309694196,8.90443581443488E-6,0.0010692416108239095
113,198.44446691493312,8.83431282511565E-6,0.0010780759236490253
114,198.4211071208135,8.76736589531816E-6,0.0010868432895443435
115,198.3974078685048,8.697842853226337E-6,0.0010955411323975697
116,198.37282250421458,8.723715101637954E-6,0.0011042648474992077
117,198.34781073004459,8.851110476578615E-6,0.0011131159579757864
118,198.32296185003446,8.810147876017406E-6,0.0011219261058518038
119,198.2979621586439,8.747123849805792E-6,0.0011306732297016095
120,198.27282534679537,8.772839717963924E-6,0.0011394460694195735
121,198.24736452860014,8.555717460920732E-6,0.0011480017868804942
122,198.2220300899121,8.577742510089796E-6,0.001156579529390584
123,198.19690155113975,8.559773180159954E-6,0.0011651393025707438
124,198.17130954039388,8.624031043668442E-6,0.0011737633336144123
125,198.1456748504818,8.627572869803772E-6,0.0011823909064842162
126,198.12015490204053,8.559387880908925E-6,0.0011909502943651252
127,198.09521233332921,8.662764782969575E-6,0.0011996130591480948
128,198.07048476828862,8.719312695318829E-6,0.0012083323718434136
129,198.04535676193103,8.626842154790313E-6,0.0012169592139982038
130,198.02034442730633,8.688225512732846E-6,0.0012256474395109366
131,197.9949074771716,8.590430408589817E-6,0.0012342378699195264
132,197.96907937003022,8.58115083682253E-6,0.001242819020756349
133,197.9432343297721,8.62535052956725E-6,0.0012514443712859163
134,197.9171754760666,8.809449240092986E-6,0.0012602538205260094
135,197.89166523308484,8.87303780908279E-6,0.0012691268583350922
136,197.86630145153913,8.856375742616266E-6,0.0012779832340777085
137,197.84015993609412,8.966141892493926E-6,0.0012869493759702024
138,197.8141171903905,8.865006073309106E-6,0.0012958143820435114
139,197.7886935167982,8.852150857735855E-6,0.0013046665329012471
140,197.7634668002501,8.90416693966365E-6,0.0013135706998409107
141,197.73872380291087,8.872924410954313E-6,0.001322443624251865
142,197.71332974602475,8.904653309602292E-6,0.0013313482775614673
143,197.6880477458387,8.970057105454922E-6,0.0013403183346669223
144,197.6632942697057,9.02147840085271E-6,0.001349339813067775
145,197.63808642696063,9.075678192808726E-6,0.0013584154912605836
146,197.61260520989154,9.01355766809708E-6,0.0013674290489286806
147,197.5865453583543,9.072621575526845E-6,0.0013765016705042075
148,197.561338582099,9.185055250107145E-6,0.0013856867257543146
149,197.53627944274717,9.28322089224977E-6,0.0013949699466465643
150,197.510987319452,9.309192789574007E-6,0.0014042791394361384
151,197.4857161036162,9.418132459761853E-6,0.0014136972718959003
152,197.4606674948532,9.396256315481776E-6,0.001423093528211382
153,197.43526093606567,9.468449277857926E-6,0.0014325619774892399
154,197.4096322270699,9.49976748486895E-6,0.0014420617449741088
155,197.3843653991481,9.79560327285809E-6,0.0014518573482469668
156,197.3597356600096,9.772762844162166E-6,0.001461630111091129
157,197.3339310321945,1.0154535355997043E-5,0.001471784646447126
158,197.3083398978098,1.0262865106057795E-5,0.0014820475115531837
159,197.2824226095718,1.0391413668319542E-5,0.0014924389252215032
160,197.25702646521393,1.0042920380970954E-5,0.001502481845602474
161,197.23168587729776,9.84178273351172E-6,0.0015123236283359858
162,197.20701894098156,1.0027066048063888E-5,0.0015223506943840496
163,197.18303165999106,9.701347631779736E-6,0.0015320520420158293
164,197.15934088486682,9.589455876485723E-6,0.0015416414978923151
165,197.1352341951657,9.241659260589931E-6,0.0015508831571529051
166,197.11085504882828,9.282108409466724E-6,0.0015601652655623719
167,197.08673026128076,9.068117726368132E-6,0.00156923338328874
168,197.06251038446032,9.2331967069113E-6,0.0015784665799956513
169,197.03796787372238,9.216230774186906E-6,0.0015876828107698382
170,197.01334204932044,9.231579190842597E-6,0.0015969143899606808
171,196.9887043060321,9.341812742929924E-6,0.0016062562027036108
172,196.96507121278188,9.42777094357257E-6,0.0016156839736471834
173,196.94120607610103,9.42015702840165E-6,0.001625104130675585
174,196.91663608063416,9.229039222618754E-6,0.0016343331698982038
175,196.89147498765047,9.29299855314229E-6,0.001643626168451346
176,196.86696968070277,9.175964054437649E-6,0.0016528021325057836
177,196.8421251280183,8.95768418766734E-6,0.001661759816693451
178,196.81677305632215,9.063617207357488E-6,0.0016708234339008084
179,196.7918665903446,9.311687597068477E-6,0.0016801351214978768
180,196.76708300302712,9.304843572146096E-6,0.0016894399650700229
181,196.74241554995606,9.453766228348385E-6,0.0016988937312983712
182,196.71810647251306,9.579986547999256E-6,0.0017084737178463705
183,196.69381001888578,9.796478332756946E-6,0.0017182701961791275
184,196.67007097300643,9.743342786207129E-6,0.0017280135389653346
185,196.64557156483434,9.87806144696092E-6,0.0017378916004122955
186,196.6204225712166,9.697604479956038E-6,0.0017475892048922515
187,196.59521037133538,9.653526698756038E-6,0.0017572427315910076
188,196.56965040936234,9.51909124601E-6,0.0017667618228370176
189,196.54348749540682,9.584719665836064E-6,0.0017763465425028537
190,196.51769095998444,9.490230140534279E-6,0.001785836772643388
191,196.4910260797479,9.535654399238222E-6,0.0017953724270426262
192,196.46424960207605,9.42007693529506E-6,0.0018047925039779214
193,196.43867566176417,9.375605104796177E-6,0.0018141681090827176
194,196.41255517217954,9.308086282662304E-6,0.00182347619536538
195,196.38612628186573,9.338422173772059E-6,0.001832814617539152
196,196.3587302009514,9.422475273256066E-6,0.0018422370928124082
197,196.33121150571094,9.174377427386428E-6,0.0018514114702397947
198,196.30356326783914,9.278228022450095E-6,0.0018606896982622447
199,196.27586945203467,9.328782294274606E-6,0.0018700184805565193
200,196.24916021308096,9.274681507500559E-6,0.0018792931620640197
201,196.2218301699795,9.169436522057006E-6,0.0018884625985860768
202,196.19389532920724,9.15628288749986E-6,0.0018976188814735766
203,196.16633196947265,9.017603641308416E-6,0.001906636485114885
204,196.13851539622723,8.899751502453171E-6,0.0019155362366173382
205,196.1101976523498,8.941406243444208E-6,0.0019244776428607824
206,196.08221945082818,8.977714308303383E-6,0.0019334553571690857
207,196.053813802847,9.212299026240761E-6,0.0019426676561953265
208,196.02496118025206,8.901834444294796E-6,0.0019515694906396214
209,195.99513263928176,8.939535395677672E-6,0.001960509026035299
210,195.96530150192814,8.873970583378702E-6,0.0019693829966186778
211,195.936220339043,8.78666213947184E-6,0.0019781696587581497
212,195.90654729088584,8.841213968724609E-6,0.0019870108727268743
213,195.87589811134538,8.887231914316569E-6,0.001995898104641191
214,195.84495264837474,8.957659841396406E-6,0.0020048557644825873
215,195.81423940224357,9.084294244854534E-6,0.002013940058727442
216,195.78411699682906,9.012091700600829E-6,0.0020229521504280426
217,195.75465696732684,8.985291284072977E-6,0.0020319374417121154
218,195.7252376743284,8.916205252176413E-6,0.0020408536469642916
219,195.69609475594262,9.007139991736147E-6,0.002049860786956028
220,195.66778374376383,9.035139426323611E-6,0.0020588959263823513
221,195.6393554862426,8.998228238203086E-6,0.0020678941546205544
222,195.61092124082583,9.028958302646566E-6,0.0020769231129232012
223,195.58329318274323,8.904029172611863E-6,0.002085827142095813
224,195.55597991525403,8.891296177037936E-6,0.002094718438272851
225,195.52876451433104,8.879271354835231E-6,0.002103597709627686
226,195.50125970460076,8.887195586959317E-6,0.0021124849052146454
227,195.4741790112014,8.893837664490507E-6,0.002121378742879136
228,195.44742054081158,8.85971920793406E-6,0.00213023846208707
229,195.4200880439493,8.91225919795912E-6,0.002139150721285029
230,195.39291022538393,8.996458577736985E-6,0.0021481471798627657
231,195.36540069504738,8.98545625123792E-6,0.0021571326361140035
232,195.337864956318,9.064676635011696E-6,0.002166197312749015
233,195.31000952532253,9.09311075289945E-6,0.0021752904235019144
234,195.2813192746513,9.061923891329032E-6,0.0021843523473932436
235,195.25140384704872,8.943471526628526E-6,0.002193295818919872
236,195.22139691600898,8.75546725642107E-6,0.002202051286176293
237,195.19299843609562,8.651445679250662E-6,0.0022107027318555438
238,195.16492371007345,8.722310914527463E-6,0.002219425042770071
239,195.13639802279005,8.715304274605132E-6,0.002228140347044676
240,195.10755877022794,8.898931447728953E-6,0.002237039278492405
241,195.07933687707987,8.979090762656705E-6,0.0022460183692550617
242,195.05083393769468,9.079444545564198E-6,0.002255097813800626
243,195.02201462440183,8.93439290923744E-6,0.0022640322067098637
244,194.99455335904975,8.968677118637345E-6,0.002273000883828501
245,194.96725900876135,9.113979608153936E-6,0.002282114863436655
246,194.93953201993475,9.287878722995866E-6,0.002291402742159651
247,194.91158301114882,9.209284475535245E-6,0.0023006120266351863
248,194.883345636242,9.156125361945544E-6,0.0023097681519971317
249,194.85501657549835,9.213723125704523E-6,0.002318981875122836
250,194.8282785803064,9.146176689534941E-6,0.002328128051812371
251,194.80329205901333,9.21077505473439E-6,0.002337338826867105
252,194.77840419496985,9.457196214579201E-6,0.0023467960230816845
253,194.752763910775,9.53811056833391E-6,0.0023563341336500184
254,194.72754097052413,9.526922181889933E-6,0.0023658610558319085
255,194.7009952556337,9.345989120613046E-6,0.0023752070449525216
256,194.6753424239547,9.299396269126898E-6,0.0023845064412216484
257,194.6497659118832,9.348761233525357E-6,0.0023938552024551736
258,194.62416543552277,9.272612577303033E-6,0.0024031278150324765
259,194.5980870022839,9.325806085449012E-6,0.0024124536211179255
260,194.57323078801994,9.007702021274604E-6,0.0024214613231392
261,194.5479610306247,9.25925039737531E-6,0.0024307205735365754
262,194.5229926502055,9.199372730487064E-6,0.0024399199462670626
263,194.49690328850545,9.093826743612126E-6,0.002449013773010675
264,194.47011187511382,9.139434149993779E-6,0.0024581532071606686
265,194.4431551192456,9.062515812574433E-6,0.002467215722973243
266,194.416952004903,9.010897263948384E-6,0.0024762266202371912
267,194.3910177519752,8.745781497068893E-6,0.0024849724017342602
268,194.36389895904367,8.73301761724659E-6,0.002493705419351507
269,194.33627555416967,8.700826983520097E-6,0.002502406246335027
270,194.30870672715892,8.76000370955151E-6,0.0025111662500445784
271,194.28265532565817,8.611636216694646E-6,0.002519777886261273
272,194.25709567837484,8.525671591079861E-6,0.002528303557852353
273,194.23232196811156,8.636673518571982E-6,0.0025369402313709247
274,194.20639417305753,8.741048173094088E-6,0.0025456812795440187
275,194.1799918218705,8.647280385565564E-6,0.0025543285599295843
276,194.15263708226223,8.62850210969399E-6,0.002562957062039278
277,194.12505162595338,8.652667693428805E-6,0.002571609729732707
278,194.0981989283611,8.771608638135027E-6,0.002580381338370842
279,194.07063667844486,8.731626126416768E-6,0.0025891129644972587
280,194.04472890922855,8.84137359506344E-6,0.0025979543380923223
281,194.01815843899612,8.927784903676713E-6,0.0026068821229959993
282,193.99083061805928,8.87690538498327E-6,0.0026157590283809825
283,193.9639187763769,8.847470742526352E-6,0.002624606499123509
284,193.93762671250835,9.013236089618516E-6,0.002633619735213127
285,193.91132628337985,8.873795432411654E-6,0.002642493530645539
286,193.8834010435767,8.88561939192542E-6,0.0026513791500374644
287,193.8549929491527,8.936961087062459E-6,0.002660316111124527
288,193.82581256974245,8.852128625336672E-6,0.0026691682397498636
289,193.79653372103343,8.827636266504758E-6,0.0026779958760163682
290,193.76658663475055,8.789382510496129E-6,0.0026867852585268645
291,193.7359478692417,8.771083616851234E-6,0.0026955563421437157
292,193.7052118474078,8.721850019783415E-6,0.002704278192163499
293,193.67445873247564,8.877509915175271E-6,0.0027131557020786744
294,193.64501293533718,9.032511235067605E-6,0.002722188213313742
295,193.614034641028,8.907832206253602E-6,0.0027310960455199955
296,193.58401612759673,8.979491057681427E-6,0.002740075536577677
297,193.55438973971667,9.252655595207393E-6,0.0027493281921728845
298,193.52443358259424,9.344876993900285E-6,0.002758673069166785
299,193.49513528856465,9.131665980332806E-6,0.0027678047351471177
300,193.46527894186005,8.910398969575736E-6,0.0027767151341166934
301,193.43554830855382,8.99361627458314E-6,0.0027857087503912765
302,193.40668054847401,9.053651890034207E-6,0.002794762402281311
303,193.3780346278781,9.102603368438884E-6,0.0028038650056497498
304,193.34860863514854,9.085209055714175E-6,0.0028129502147054637
305,193.31883301398813,9.013948996198505E-6,0.002821964163701662
306,193.2899761717488,9.02501127151762E-6,0.00283098917497318
307,193.26138705292476,9.252958859611559E-6,0.0028402421338327914
308,193.23225661201374,9.352739157974751E-6,0.002849594872990766
