#t,ESS,tempDiff,temp
0,999.9999999999848,0.0,0.0
1,999.9899999999977,4.028101660500344E-5,4.028101660500344E-5
2,999.9607231481621,4.0410723245349916E-5,8.069173985035335E-5
3,999.9127296497848,4.007457513709726E-5,1.2076631498745061E-4
4,999.8470805458246,4.038637633081383E-5,1.6115269131826443E-4
5,999.7645010843643,4.0075582041258565E-5,2.01228273359523E-4
6,999.6660237624628,4.028084691143007E-5,2.4150912027095308E-4
7,999.5516353153637,4.0429218660212795E-5,2.8193833893116587E-4
8,999.4220212886368,4.032568664322077E-5,3.2226402557438663E-4
9,999.2762484127345,4.03513227603947E-5,3.626153483347813E-4
10,999.114946091709,4.054294450837987E-5,4.031582928431612E-4
11,998.9418085176427,4.0480907990434703E-5,4.436392008335959E-4
12,998.7557244788891,4.0739010646654616E-5,4.843782114802505E-4
13,998.5572979588128,4.110126252149791E-5,5.254794740017485E-4
14,998.3454854114036,4.106169482900372E-5,5.665411688307522E-4
15,998.1191794512076,4.057845254355184E-5,6.07119621374304E-4
16,997.8829402737034,4.0346323301714315E-5,6.474659446760184E-4
17,997.6350045179017,3.990797619786544E-5,6.873739208738838E-4
18,997.3760321200061,3.96055067436519E-5,7.269794276175357E-4
19,997.1039503909889,3.9541369653375095E-5,7.665207972709108E-4
20,996.8196723497163,3.8949599396222166E-5,8.054703966671329E-4
21,996.5253468534283,3.9099017075133346E-5,8.445694137422662E-4
22,996.2218439636821,3.926006247270439E-5,8.838294762149706E-4
23,995.909052699527,3.9094721761767474E-5,9.229241979767381E-4
24,995.5847572466594,3.836247831346506E-5,9.612866762902031E-4
25,995.2520249402628,3.867753535826623E-5,9.999642116484693E-4
26,994.904790207972,3.846805474414246E-5,0.0010384322663926117
27,994.5487951375071,3.813754067557328E-5,0.001076569807068185
28,994.1813201482698,3.853357981076158E-5,0.0011151033868789465
29,993.806089501402,3.898029612789357E-5,0.00115408368300684
30,993.4205735186615,3.8995129351250944E-5,0.001193078812358091
31,993.0254117851621,3.933481882411191E-5,0.0012324136311822028
32,992.6226505416518,3.938959409783768E-5,0.0012718032252800405
33,992.2114017848853,3.917892298517664E-5,0.0013109821482652172
34,991.7931178475067,3.8627790962190765E-5,0.001349609939227408
35,991.3715592449862,3.829585488197105E-5,0.001387905794109379
36,990.9459396947774,3.83820313374785E-5,0.0014262878254468574
37,990.5138533212624,3.8657023722634296E-5,0.0014649448491694916
38,990.0810080468683,3.871826675660626E-5,0.0015036631159260978
39,989.641305035705,3.9247908609569465E-5,0.0015429110245356672
40,989.1927201192415,3.9452113607235315E-5,0.0015823631381429025
41,988.7404526001408,3.8940916968558996E-5,0.0016213040551114615
42,988.2786200014503,3.920443113916939E-5,0.001660508486250631
43,987.8159128670533,3.8459104334301885E-5,0.0016989675905849327
44,987.346311103918,3.92332813817577E-5,0.0017382008719666906
45,986.8698177953645,3.9658449242754276E-5,0.0017778593212094448
46,986.3809244862425,3.973232009915446E-5,0.0018175916413085992
47,985.8816117044245,3.903236002200448E-5,0.0018566240013306037
48,985.3689643331328,3.868984628434405E-5,0.0018953138476149477
49,984.8476756591089,3.8653134291406484E-5,0.001933966981906354
50,984.3135160738533,3.8675661929603284E-5,0.0019726426438359573
51,983.7772913504373,3.909351649097919E-5,0.0020117361603269367
52,983.2351877362131,3.867327077539745E-5,0.002050409431102334
53,982.685261914399,3.855797016757665E-5,0.0020889674012699107
54,982.1309035772739,3.848847901069103E-5,0.0021274558802806018
55,981.5709715899249,3.8325712501978034E-5,0.00216578159278258
56,981.0079551478622,3.8022466409446956E-5,0.002203804059192027
57,980.4411596609913,3.838501710607704E-5,0.002242189076298104
58,979.8614891343965,3.798131512043882E-5,0.0022801703914185427
59,979.2716127169955,3.8088103943899906E-5,0.0023182584953624426
60,978.6780970455509,3.871808735050662E-5,0.0023569765827129493
61,978.0787319335152,3.881401197742679E-5,0.002395790594690376
62,977.484292275366,3.9168581703861385E-5,0.0024349591763942373
63,976.8811912473242,3.9210056091781236E-5,0.0024741692324860187
64,976.2687139237504,3.962465549848386E-5,0.0025137938879845026
65,975.6528649672542,3.962465500609876E-5,0.0025534185429906013
66,975.0367718680637,3.9672849631355636E-5,0.0025930913926219567
67,974.4133944323556,3.980451211531641E-5,0.002632895904737273
68,973.7887189346811,4.0529851064159106E-5,0.002673425755801432
69,973.1605756194799,4.0529997720418095E-5,0.00271395575352185
70,972.53227358441,4.005596209982525E-5,0.0027540117156216754
71,971.8929495255378,3.994459723303743E-5,0.002793956312854713
72,971.2431468182212,4.016932585446944E-5,0.002834125638709182
73,970.5892203587412,4.033359475237198E-5,0.002874459233461554
74,969.9403971568145,3.995319726579841E-5,0.0029144124307273526
75,969.2823666349572,3.9649245364593626E-5,0.0029540616760919463
76,968.6279078039507,3.960435883729746E-5,0.002993666034929244
77,967.9964729558056,3.916500452326931E-5,0.003032831039452513
78,967.3635534470101,3.89509660404313E-5,0.0030717820054929445
79,966.7218020471732,3.861960231296205E-5,0.003110401607805907
80,966.0718333308821,3.8705084943642374E-5,0.003149106692749549
81,965.4156018726435,3.9121909440906447E-5,0.0031882286021904555
82,964.7627605392189,3.894797191667437E-5,0.00322717657410713
83,964.1096086013295,3.835145066167211E-5,0.003265528024768802
84,963.4623251256951,3.8459673509820166E-5,0.0033039876982786224
85,962.806709818776,3.840147889352828E-5,0.0033423891771721505
86,962.1448624796359,3.862382579271462E-5,0.0033810130029648653
87,961.4811083016858,3.8828431204619207E-5,0.0034198414341694845
88,960.8171805152825,3.908314206944631E-5,0.0034589245762389306
89,960.1571115851199,3.881487333634303E-5,0.003497739449575274
90,959.4816423070162,3.936366776625133E-5,0.003537103117341525
91,958.804308074052,3.9479498506836084E-5,0.003576582615848361
92,958.1233066070808,3.947458216385165E-5,0.0036160571980122127
93,957.4600133858618,3.911559383960749E-5,0.00365517279185182
94,956.8028719834499,3.92460228566663E-5,0.0036944188147084865
95,956.1275979321756,3.891171002539124E-5,0.003733330524733878
96,955.4347826783123,3.950491209160638E-5,0.003772835436825484
97,954.7409885561163,3.978010071965456E-5,0.0038126155375451387
98,954.046662992991,3.960280055987617E-5,0.003852218338105015
99,953.3580552764703,3.98672352819837E-5,0.003892085573386999
100,952.6733118474577,3.9387705718694055E-5,0.003931473279105693
101,951.9804765220445,3.940694279678144E-5,0.003970880221902474
102,951.2897283666476,3.935495851765882E-5,0.004010235180420133
103,950.5973481649054,3.9464136528813036E-5,0.004049699316948946
104,949.9017093318714,3.9415219724330996E-5,0.004089114536673277
105,949.1845761116872,3.9489077684308755E-5,0.004128603614357585
106,948.4569855586316,3.900408856565276E-5,0.004167607702923238
107,947.7286815178974,3.9380447343367535E-5,0.004206988150266606
108,946.989970623289,3.850243029252116E-5,0.004245490580559127
109,946.2251504629057,3.828106746745199E-5,0.004283771648026579
110,945.4715962899394,3.840425648278717E-5,0.004322175904509366
111,944.7099257669125,3.8748850926360755E-5,0.0043609247554357265
112,943.9379753135055,3.874711876545837E-5,0.0043996718742011845
113,943.1689510670345,3.8728633142177825E-5,0.004438400507343362
114,942.379588937253,3.905520777588169E-5,0.004477455715119244
115,941.5913969171501,3.893674575226967E-5,0.004516392460871514
116,940.8029555027456,3.8967772960087444E-5,0.004555360233831601
117,940.0242768666975,3.888298774178538E-5,0.004594243221573387
118,939.2448411080575,3.8632641478790787E-5,0.004632875863052177
119,938.4610443386752,3.855820651774194E-5,0.00467143406956992
120,937.6855642701448,3.81393078353621E-5,0.004709573377405281
121,936.9088420462299,3.877226274268951E-5,0.004748345640147971
122,936.1273579210452,3.833585317353996E-5,0.004786681493321511
123,935.3457159401503,3.812601991995621E-5,0.004824807513241468
124,934.5649322505113,3.822522951906572E-5,0.004863032742760533
125,933.7666508906244,3.848125620858183E-5,0.0049015139989691155
126,932.9548329871108,3.806077964655368E-5,0.004939574778615669
127,932.1392648125124,3.828632308162393E-5,0.004977861101697293
128,931.3260405708644,3.845066573918243E-5,0.005016311767436475
129,930.5166444152844,3.833679949321233E-5,0.005054648566929687
130,929.7063106261123,3.864835517302684E-5,0.005093296922102714
131,928.8802970441988,3.836421505744442E-5,0.005131661137160158
132,928.0615478497464,3.810598260413143E-5,0.00516976711976429
133,927.2531227358843,3.8748606558529256E-5,0.005208515726322819
134,926.4248477793068,3.838802971590706E-5,0.005246903756038726
135,925.6040447404339,3.848942728828709E-5,0.0052853931833270135
136,924.7807801175692,3.893921859370239E-5,0.005324332401920716
137,923.9739186666029,3.9023586152074986E-5,0.0053633559880727905
138,923.1776970915679,3.930497015405067E-5,0.005402660958226841
139,922.3612739963174,3.905687424642929E-5,0.0054417178324732704
140,921.5533426668002,3.920213983076972E-5,0.00548091997230404
141,920.7305660181892,3.921357159959566E-5,0.005520133543903636
142,919.9106356667758,3.890278543460775E-5,0.005559036329338243
143,919.0925794582259,3.877778297415906E-5,0.005597814112312402
144,918.265526169597,3.888570898506174E-5,0.005636699821297463
145,917.4263498094168,3.94619936350606E-5,0.005676161814932524
146,916.5929813585302,3.9391876998880644E-5,0.0057155536919314045
147,915.760952328467,3.9200280903674864E-5,0.0057547539728350795
148,914.9443163923179,3.962837945131018E-5,0.00579438235228639
149,914.1364821257939,3.919808108782071E-5,0.00583358043337421
150,913.3190502768664,3.9205647170387547E-5,0.0058727860805445975
151,912.4998801239354,3.8847765663503705E-5,0.005911633846208101
152,911.702846318322,3.891095303040541E-5,0.005950544799238506
153,910.8834856184816,3.880630357846594E-5,0.005989351102816972
154,910.0731260643505,3.8889463900671E-5,0.006028240566717643
155,909.2978519281942,3.910766210371932E-5,0.006067348228821362
156,908.5325028617419,3.948855447256452E-5,0.006106836783293927
157,907.7548954414533,3.969329714751316E-5,0.006146530080441441
158,906.9936377167521,3.9584109380516776E-5,0.006186114189821957
159,906.2350849109716,3.982662673337498E-5,0.006225940816555332
160,905.4582973442871,3.956891436077703E-5,0.00626550973091611
161,904.67743291997,3.9586631645917194E-5,0.006305096362562027
162,903.8589397325359,3.96332325420461E-5,0.006344729595104073
163,903.053531560861,3.957312696023896E-5,0.006384302722064312
164,902.2370545703232,3.9831316024730404E-5,0.006424134038089042
165,901.4202274904991,3.975193652822836E-5,0.0064638859746172705
166,900.6037331757728,3.946071872472557E-5,0.006503346693341996
167,899.7783403755237,3.9150703100062854E-5,0.006542497396442058
168,898.9702148934048,3.9447560294657645E-5,0.006581944956736716
169,898.1526068790137,3.9444266650395446E-5,0.006621389223387112
170,897.3500272937982,3.93885169546491E-5,0.006660777740341761
171,896.5446942662225,3.9129263987777985E-5,0.006699907004329539
172,895.7322441381375,3.953220932774037E-5,0.006739439213657279
173,894.8950070327965,3.946954426197829E-5,0.006778908757919258
174,894.0519296996724,3.975305948025453E-5,0.006818661817399513
175,893.2174512475593,3.9680303836936364E-5,0.00685834212123645
176,892.3865533307672,3.963517266312593E-5,0.006897977293899575
177,891.5489110628961,3.9240313645355934E-5,0.006937217607544931
178,890.7025903684874,3.891866698673466E-5,0.006976136274531666
179,889.8567182909053,3.904686135643222E-5,0.007015183135888098
180,889.0340184404808,3.906743635771091E-5,0.007054250572245809
181,888.2404423019834,3.9282606697512894E-5,0.007093533178943322
182,887.4508606999415,3.9685123047319814E-5,0.007133218301990642
183,886.6515263896304,3.9476712173112576E-5,0.007172695014163754
184,885.8612604577221,3.983575344990895E-5,0.007212530767613663
185,885.0291130318185,3.9778808866278235E-5,0.007252309576479941
186,884.2151073645007,3.990023233283952E-5,0.007292209808812781
187,883.418415827686,3.98170350275476E-5,0.0073320268438403285
188,882.6136288956212,3.933413256247164E-5,0.0073713609764028
189,881.7979537685835,3.913993039969095E-5,0.007410500906802491
190,880.9901082950051,3.903632676486404E-5,0.0074495372335673556
191,880.1836195656228,3.9253661465352935E-5,0.007488790895032709
192,879.3883176385552,3.89403525272938E-5,0.007527731247560003
193,878.5584254136777,3.903435611909125E-5,0.007566765603679094
194,877.7354080606282,3.942821469070603E-5,0.0076061938183698006
195,876.9066394978331,4.016433861293797E-5,0.007646358156982738
196,876.0950835134211,3.982641977785617E-5,0.0076861845767605946
197,875.3237156090522,3.9428400947478224E-5,0.007725612977708073
198,874.6002746867744,3.945370182076091E-5,0.007765066679528834
199,873.8464953238669,3.950705145098001E-5,0.007804573730979814
200,873.0704649948427,3.969992049518137E-5,0.007844273651474996
201,872.3080156674663,3.9972831405552954E-5,0.007884246482880549
202,871.5468177004759,3.931740859904593E-5,0.007923563891479595
203,870.781374579112,3.9614653540080984E-5,0.007963178545019677
204,870.0218889243911,3.9056954482408726E-5,0.008002235499502085
205,869.2872051761935,3.881145819193769E-5,0.008041046957694023
206,868.5640762353133,3.9001335527589146E-5,0.008080048293221611
207,867.8442592360491,3.84330916382276E-5,0.008118481384859839
208,867.1105682587316,3.865401619888649E-5,0.008157135401058726
209,866.3600215443875,3.867530585886468E-5,0.00819581070691759
210,865.6072200756828,3.903437340635402E-5,0.008234845080323945
211,864.8609783461336,3.94244194635631E-5,0.008274269499787507
212,864.1326702756254,4.011415143463463E-5,0.008314383651222142
213,863.4051430207614,4.002029929123183E-5,0.008354403950513374
214,862.7050815915995,3.982623685819572E-5,0.00839423018737157
215,862.0151406898782,4.03164322288312E-5,0.008434546619600402
216,861.3331589614946,4.0533509246625656E-5,0.008475080128847028
217,860.6383306751017,4.073884813415956E-5,0.008515818976981188
218,859.9383361145871,4.064052365006134E-5,0.008556459500631249
219,859.2550476362776,4.035460071172064E-5,0.00859681410134297
220,858.5816819612377,4.016655322351027E-5,0.00863698065456648
221,857.8973650555196,4.026857652618381E-5,0.008677249231092664
222,857.2215453248349,4.046897033160016E-5,0.008717718201424264
223,856.5355037890686,4.057863722330613E-5,0.00875829683864757
224,855.8295233798522,3.997046094608236E-5,0.008798267299593652
225,855.1229170983679,4.033341340049845E-5,0.00883860071299415
226,854.382713988809,4.0372030730782115E-5,0.008878972743724933
227,853.6610956885702,4.064871539655418E-5,0.008919621459121486
228,852.9661422186254,4.08788312039726E-5,0.00896050029032546
229,852.2996046377658,4.112319374793015E-5,0.00900162348407339
230,851.6080267957624,4.140655023806392E-5,0.009043030034311453
231,850.902193774145,4.1624770316087244E-5,0.009084654804627541
232,850.2170065758436,4.1633658846490866E-5,0.009126288463474031
233,849.5286215524415,4.1559272705044046E-5,0.009167847736179076
234,848.801849084112,4.139690148722719E-5,0.009209244637666304
235,848.0633727930983,4.1759929326724595E-5,0.009251004566993027
236,847.340648695177,4.1626929781954605E-5,0.009292631496774981
237,846.6221220244857,4.205370343790824E-5,0.00933468520021289
238,845.9142384907248,4.2029252918062504E-5,0.009376714453130952
239,845.1656862291137,4.2146319764379694E-5,0.009418860772895332
240,844.4119921485714,4.18430424617559E-5,0.009460703815357088
241,843.6643605666127,4.1340471740236745E-5,0.009502044287097325
242,842.9260623581874,4.150638543743209E-5,0.009543550672534757
243,842.1999830295996,4.168945798683411E-5,0.00958524013052159
244,841.4642416813018,4.111933318714973E-5,0.009626359463708739
245,840.7454575732195,4.208573692661862E-5,0.009668445200635358
246,840.0071239298765,4.162819367314266E-5,0.0097100733943085
247,839.2654760800472,4.169894031305812E-5,0.009751772334621558
248,838.5229573678924,4.198605392910764E-5,0.009793758388550667
249,837.7976026063419,4.19458029293029E-5,0.00983570419147997
250,837.1043031642862,4.2303368699606976E-5,0.009878007560179577
251,836.404378525866,4.255601234582466E-5,0.009920563572525402
252,835.6925818255662,4.2012042056612076E-5,0.009962575614582015
253,834.9600873123653,4.125316705739968E-5,0.010003828781639414
254,834.2391262014831,4.097710506126874E-5,0.010044805886700682
255,833.5157836883587,4.081426173119571E-5,0.010085620148431878
256,832.7860034143965,4.0807821555690134E-5,0.010126427969987568
257,832.0412753535438,4.036878332161529E-5,0.010166796753309183
258,831.3004714498989,4.026646855357798E-5,0.010207063221862761
259,830.5228591506856,4.019170613422147E-5,0.010247254927996982
260,829.7279596563833,4.05430526467849E-5,0.010287797980643767
261,828.9150647166467,4.0802959169042626E-5,0.01032860093981281
262,828.1039191225274,4.062916199329512E-5,0.010369230101806105
263,827.2772648202371,4.060341668019424E-5,0.0104098335184863
264,826.4680656780401,4.066650925059313E-5,0.010450500027736892
265,825.6921263192937,4.0207310705554326E-5,0.010490707338442446
266,824.9177969704526,4.072294884312276E-5,0.010531430287285568
267,824.1534109956611,4.051694039043183E-5,0.010571947227676
268,823.3674728094605,4.065737268182907E-5,0.010612604600357829
269,822.5727633288336,4.0373129951581845E-5,0.010652977730309411
270,821.7880376711172,4.03438194495985E-5,0.01069332154975901
271,821.0052177779246,3.990832720295085E-5,0.01073322987696196
272,820.2263690878814,3.991808618762044E-5,0.010773147963149581
273,819.4503378000364,3.97930223138599E-5,0.010812940985463442
274,818.7014140626004,3.956772845950851E-5,0.01085250871392295
275,817.9449086727794,3.9153107072012826E-5,0.010891661820994963
276,817.1481308341363,3.910916616718573E-5,0.010930770987162148
277,816.3562647810669,3.9081090714495466E-5,0.010969852077876643
278,815.5690018009473,3.905560109666804E-5,0.011008907678973312
279,814.7644050680572,3.929176351708922E-5,0.0110481994424904
280,813.9473776009161,3.847730311440396E-5,0.011086676745604804
281,813.1200097127586,3.861939728353521E-5,0.011125296142888338
282,812.3174072192442,3.870112458051663E-5,0.011163997267468855
283,811.5216097639055,3.921637598222445E-5,0.011203213643451079
284,810.7197586126504,3.9457490160578865E-5,0.011242671133611657
285,809.9311858437079,4.012081872582141E-5,0.011282791952337478
286,809.1183982341323,4.030898739671998E-5,0.011323100939734198
287,808.3086345394505,3.968445586563617E-5,0.011362785395599834
288,807.4564516517285,3.970122943884711E-5,0.011402486625038682
289,806.6301108999721,4.015682672106112E-5,0.011442643451759743
290,805.8054803702183,3.998079616510646E-5,0.01148262424792485
291,804.9982425172807,4.0487144360582645E-5,0.011523111392285432
292,804.178834993143,4.041916692349809E-5,0.01156353055920893
293,803.3691565256722,4.08210489570429E-5,0.011604351608165973
294,802.5309595020788,4.0953801003891754E-5,0.011645305409169865
295,801.7126061152549,4.11382547185493E-5,0.011686443663888414
296,800.9015702375576,4.1476054901186415E-5,0.0117279197187896
297,800.0994658164012,4.147316488129098E-5,0.011769392883670892
298,799.2990969250427,4.099477992670146E-5,0.011810387663597594
299,798.4959811602516,4.103170283496031E-5,0.011851419366432555
300,797.6841672824015,4.0905928129264174E-5,0.011892325294561818
301,796.8891242713048,4.1527684691856107E-5,0.011933852979253675
302,796.1238518372164,4.1360450742528206E-5,0.011975213429996204
303,795.3754814861717,4.1527772370046335E-5,0.01201674120236625
304,794.6132297810507,4.1785389535491015E-5,0.012058526591901741
305,793.865344240585,4.1917937327283104E-5,0.012100444529229024
306,793.1392277283691,4.1869809967815144E-5,0.012142314339196839
307,792.4096641544386,4.207515356429932E-5,0.012184389492761138
308,791.6585834047211,4.1897546263998366E-5,0.012226287039025136
309,790.9377136885192,4.186548265220958E-5,0.012268152521677346
310,790.1986976948572,4.1874139335367035E-5,0.012310026661012713
311,789.441674138907,4.199241133418465E-5,0.012352019072346898
312,788.7338445943918,4.2047165903949825E-5,0.012394066238250848
