#t,ESS,tempDiff,temp
0,999.9999999999848,0.0,0.0
1,999.9904130313199,2.960479969212806E-5,2.960479969212806E-5
2,999.9616720952552,2.938073809613303E-5,5.8985537788261086E-5
3,999.9134869211435,2.9591557199982695E-5,8.857709498824378E-5
4,999.8468892682411,2.926464608136667E-5,1.1784174106961045E-4
5,999.7635450729832,2.8889522814086613E-5,1.4673126388369705E-4
6,999.6624049714881,2.8818438862115147E-5,1.755497027458122E-4
7,999.5449617960982,2.8540702128143513E-5,2.040904048739557E-4
8,999.4125531987522,2.82534241961708E-5,2.323438290701265E-4
9,999.2613443952329,2.8323507393588987E-5,2.6066733646371547E-4
10,999.0908463479014,2.8504452554671838E-5,2.891717890183873E-4
11,998.9059957428311,2.8409496113927926E-5,3.1758128513231527E-4
12,998.7046059875084,2.8343906888224306E-5,3.4592519202053957E-4
13,998.4847623158043,2.851269087425832E-5,3.744378828947979E-4
14,998.2479219667903,2.8663823043577027E-5,4.031017059383749E-4
15,997.9953091445261,2.8631017463943856E-5,4.317327234023188E-4
16,997.7269486984003,2.8868073806451174E-5,4.6060079720876995E-4
17,997.4457561545969,2.893398955336078E-5,4.895347867621307E-4
18,997.1451723771421,2.918209471853816E-5,5.187168814806689E-4
19,996.8327139319742,2.890346269002542E-5,5.476203441706943E-4
20,996.5066461621004,2.8721370874652686E-5,5.76341715045347E-4
21,996.1633376639408,2.8758279806088965E-5,6.050999948514359E-4
22,995.8062566919047,2.872697626576755E-5,6.338269711172035E-4
23,995.4315620729183,2.8883250775532946E-5,6.627102218927364E-4
24,995.0495229466059,2.897627808806221E-5,6.916864999807987E-4
25,994.655970462535,2.8811867870268105E-5,7.204983678510667E-4
26,994.2484763954964,2.885888665649688E-5,7.493572545075637E-4
27,993.8260152740787,2.8637203172143078E-5,7.779944576797067E-4
28,993.3947688694118,2.8543341996413544E-5,8.065377996761202E-4
29,992.9493797707281,2.857037038365343E-5,8.351081700597737E-4
30,992.499372819872,2.8283914259623412E-5,8.633920843193971E-4
31,992.0378355664328,2.806433352333155E-5,8.914564178427286E-4
32,991.5685684978322,2.8025570984945286E-5,9.194819888276739E-4
33,991.0852884862811,2.8160787000497413E-5,9.476427758281713E-4
34,990.5884940368413,2.8116342700264433E-5,9.757591185284357E-4
35,990.0774097376836,2.820275602554086E-5,0.0010039618745539766
36,989.5563942978758,2.8133301662112356E-5,0.001032095176216089
37,989.0230021220185,2.7990627222276143E-5,0.0010600858034383652
38,988.4733244218984,2.8042005955356915E-5,0.0010881278093937221
39,987.913981511077,2.801399950686308E-5,0.0011161418089005852
40,987.3514072880731,2.794518186211336E-5,0.0011440869907626986
41,986.778370557094,2.7949259282756865E-5,0.0011720362500454555
42,986.203271279919,2.777107826885634E-5,0.0011998073283143117
43,985.623584933376,2.7723166968070086E-5,0.0012275304952823818
44,985.0377135417691,2.7785266329306576E-5,0.0012553157616116883
45,984.434528882822,2.781153175995952E-5,0.001283127293371648
46,983.8173485490499,2.814298684406303E-5,0.001311270280215711
47,983.1925024041534,2.8025755949147755E-5,0.0013392960361648587
48,982.5523754168962,2.8104156907555773E-5,0.0013674001930724143
49,981.9130022501455,2.8136143157589224E-5,0.0013955363362300036
50,981.2723229584334,2.7823582663313232E-5,0.0014233599188933168
51,980.6257352116296,2.791740296981398E-5,0.0014512773218631307
52,979.9694333586683,2.791841174185837E-5,0.001479195733604989
53,979.3084290813608,2.77758022730984E-5,0.0015069715358780875
54,978.639532379491,2.793105860198202E-5,0.0015349025944800697
55,977.9586893955736,2.7830189015335152E-5,0.001562732783495405
56,977.2786674374646,2.7525534163058927E-5,0.0015902583176584638
57,976.5735379282124,2.7562139670338708E-5,0.0016178204573288025
58,975.8606009726051,2.7433313701874634E-5,0.0016452537710306772
59,975.1381334542066,2.7350035646097003E-5,0.0016726038066767741
60,974.405281757588,2.7366062147246667E-5,0.0016999698688240207
61,973.6638035884333,2.7357916032330697E-5,0.0017273277848563514
62,972.9039601402543,2.741364948312944E-5,0.0017547414343394808
63,972.1387046244313,2.7499727401812055E-5,0.0017822411617412928
64,971.3500378776905,2.776390376009016E-5,0.001810005065501383
65,970.5362245390453,2.8030861118599042E-5,0.001838035926619982
66,969.7234608618758,2.7802914136394886E-5,0.0018658388407563767
67,968.9064903166583,2.783191628254851E-5,0.0018936707570389253
68,968.0749835762806,2.787636121109655E-5,0.001921547118250022
69,967.2435620120409,2.7636496358777516E-5,0.0019491836146087996
70,966.4114091051446,2.7572439285331062E-5,0.0019767560538941306
71,965.5780281365936,2.7457660327022836E-5,0.0020042137142211535
72,964.7347578435202,2.7735478542808412E-5,0.002031949192763962
73,963.8855739773569,2.769374458816315E-5,0.002059642937352125
74,963.0363456735846,2.753254709310243E-5,0.0020871754844452276
75,962.1697632712065,2.761059030072171E-5,0.0021147860747459495
76,961.2762827234136,2.790023442895124E-5,0.0021426863091749005
77,960.361490485852,2.7909713108594158E-5,0.002170596022283495
78,959.4456202243334,2.7947783428532817E-5,0.0021985438057120278
79,958.5275774355961,2.7780276970732002E-5,0.00222632408268276
80,957.6007174496435,2.786410408318898E-5,0.002254188186765949
81,956.6530818743429,2.8113038548685054E-5,0.002282301225314634
82,955.6893043662608,2.8355453327124976E-5,0.002310656678641759
83,954.7083716100789,2.857020356787198E-5,0.002339226882209631
84,953.7191110090064,2.8621128946589774E-5,0.002367848011156221
85,952.7354868729304,2.8397657023570115E-5,0.002396245668179791
86,951.7493770535948,2.843421352839376E-5,0.0024246798817081847
87,950.7589826883496,2.835568172399943E-5,0.0024530355634321843
88,949.7487742729744,2.87587271136808E-5,0.002481794290545865
89,948.7344718017492,2.845823336284515E-5,0.00251025252390871
90,947.7167771195291,2.849347138870044E-5,0.0025387459952974103
91,946.6879111736143,2.8620588301967885E-5,0.002567366583599378
92,945.6625584375299,2.835227277725428E-5,0.0025957188563766327
93,944.6248594821807,2.8388277359103553E-5,0.002624107133735736
94,943.573152161496,2.8294597136179503E-5,0.0026524017308719155
95,942.5190181732053,2.8203820329703E-5,0.0026806055512016186
96,941.4598820399145,2.8111299673144585E-5,0.0027087168508747633
97,940.3828188845547,2.805866695648026E-5,0.0027367755178312435
98,939.3001022174268,2.7998734708466475E-5,0.00276477425253971
99,938.2307062253385,2.8047332950014504E-5,0.0027928215854897244
100,937.1511443565191,2.822911181239276E-5,0.0028210506973021174
101,936.0603034772009,2.827437774990108E-5,0.0028493250750520186
102,934.9619090898708,2.812562976247951E-5,0.002877450704814498
103,933.8525236128798,2.818670288845666E-5,0.0029056374077029547
104,932.752530773136,2.7983341019618265E-5,0.002933620748722573
105,931.6385953011628,2.8050170959855113E-5,0.0029616709196824283
106,930.5128677308389,2.814719491325335E-5,0.0029898181145956815
107,929.3825231966072,2.8047355016963555E-5,0.003017865469612645
108,928.24159326425,2.8114120914100878E-5,0.003045979590526746
109,927.0885298518142,2.8205237900624746E-5,0.0030741848284273707
110,925.9359260983234,2.835561274346248E-5,0.0031025404411708334
111,924.7595757647499,2.846020320174746E-5,0.003131000644372581
112,923.5986050917162,2.8263228659880646E-5,0.0031592638730324617
113,922.4016218145587,2.860090470982915E-5,0.003187864777742291
114,921.2069062287683,2.8505569333290262E-5,0.0032163703470755815
115,919.9931150019751,2.8599330172362607E-5,0.0032449696772479442
116,918.7828957625227,2.8483460611481274E-5,0.0032734531378594257
117,917.5821993110494,2.8311178679575337E-5,0.003301764316539001
118,916.3875425228881,2.8156718192302066E-5,0.0033299210347313033
119,915.1689410746238,2.825414669939853E-5,0.0033581751814307018
120,913.9199443013503,2.8040850815588958E-5,0.0033862160322462908
121,912.6701535413787,2.7798922369573776E-5,0.0034140149546158646
122,911.4188891631893,2.7845975362406705E-5,0.003441860929978271
123,910.1546076101358,2.7879228029379913E-5,0.003469740158007651
124,908.9011212557738,2.7708631893341562E-5,0.0034974487899009925
125,907.6461407303186,2.7684393296013247E-5,0.003525133183197006
126,906.4176312697334,2.7652300186410345E-5,0.0035527854833834163
127,905.2218266675718,2.737404569574912E-5,0.0035801595290791653
128,904.0218862295607,2.7609080830911225E-5,0.0036077686099100763
129,902.8217236111499,2.758342599223339E-5,0.00363535203590231
130,901.6121329805655,2.7736633568076634E-5,0.0036630886694703864
131,900.3865657327963,2.788201236136546E-5,0.0036909706818317517
132,899.1454633784392,2.7771415877516803E-5,0.0037187420977092683
133,897.8830351882272,2.8172361498556357E-5,0.0037469144592078246
134,896.6494483750839,2.7909441852493006E-5,0.0037748239010603176
135,895.3996079224083,2.804385440391627E-5,0.003802867755464234
136,894.1246798484619,2.835399689180817E-5,0.003831221752356042
137,892.8588808717157,2.819129768883237E-5,0.0038594130500448744
138,891.6088586000603,2.834440147236346E-5,0.003887757451517238
139,890.3573351425924,2.8790684091482504E-5,0.00391654813560872
140,889.11095569442,2.866943317647049E-5,0.003945217568785191
141,887.8697131455461,2.84737365104912E-5,0.003973691305295682
142,886.6269038953322,2.821152797484044E-5,0.004001902833270522
143,885.3995385901962,2.814382469158344E-5,0.004030046657962106
144,884.168951567947,2.799229695613014E-5,0.0040580389549182356
145,882.918712012219,2.8261553094081178E-5,0.004086300508012316
146,881.6745324435427,2.8205417384754988E-5,0.0041145059253970715
147,880.4231162774402,2.8127206946839812E-5,0.004142633132343912
148,879.1618000430811,2.800478508652563E-5,0.004170637917430438
149,877.8811843927133,2.828640024326243E-5,0.0041989243176737
150,876.5947092168186,2.8491621711688887E-5,0.004227415939385389
151,875.3096723849177,2.8022099007501257E-5,0.00425543803839289
152,874.0421640767229,2.7761156226476994E-5,0.004283199194619367
153,872.7710667720663,2.7854812539082744E-5,0.00431105400715845
154,871.4774728704974,2.813169160481758E-5,0.0043391856987632675
155,870.1632028271986,2.873179717165204E-5,0.00436791749593492
156,868.856994604876,2.8560441687833316E-5,0.004396477937622753
157,867.5110636281468,2.8802343473926018E-5,0.004425280281096679
158,866.1663091742665,2.8633809458421436E-5,0.0044539140905551005
159,864.7819775730691,2.8865863492497847E-5,0.004482779954047598
160,863.4060217620159,2.885399133869956E-5,0.004511633945386297
161,862.0343203989222,2.8937762460740267E-5,0.004540571707847037
162,860.6370776342493,2.9158968419659257E-5,0.0045697306762666964
163,859.2298844671927,2.9133033320317233E-5,0.004598863709587014
164,857.8618644467168,2.8951688969010913E-5,0.004627815398556025
165,856.4984927367532,2.8946093903233825E-5,0.004656761492459259
166,855.140789257193,2.8940749623084212E-5,0.004685702242082343
167,853.7806358025902,2.8943243531515833E-5,0.004714645485613859
168,852.3766672637614,2.9164471212460264E-5,0.0047438099568263194
169,850.9452890709042,2.8898447330111734E-5,0.004772708404156431
170,849.5110711798576,2.878305597273614E-5,0.004801491460129167
171,848.1000640740325,2.877579830365918E-5,0.004830267258432826
172,846.671662248215,2.8779353025623742E-5,0.00485904661145845
173,845.2300029580382,2.866197439869759E-5,0.004887708585857148
174,843.7590321525563,2.903849887315367E-5,0.004916747084730302
175,842.2713917667662,2.8804349816225036E-5,0.004945551434546527
176,840.7542839443379,2.8850561175132252E-5,0.004974401995721659
177,839.2614921667092,2.8902665038929344E-5,0.005003304660760588
178,837.790459581364,2.8657925968769556E-5,0.005031962586729357
179,836.2965661776757,2.8832612634895645E-5,0.005060795199364252
180,834.8159232819287,2.8919338666702655E-5,0.005089714538030955
181,833.3455216976895,2.894946885163306E-5,0.0051186640068825884
182,831.8827308679021,2.8717785666832587E-5,0.005147381792549421
183,830.3973384697264,2.8781677014265793E-5,0.0051761634695636875
184,828.944942353118,2.8565104446048234E-5,0.005204728574009736
185,827.4800067665027,2.856412288880031E-5,0.005233292696898537
186,826.0421890721024,2.8332172045497493E-5,0.005261624868944034
187,824.588698329237,2.8066155059128703E-5,0.005289691024003163
188,823.1315234652682,2.820096739987869E-5,0.005317891991403042
189,821.6946122773795,2.8332518746559535E-5,0.0053462245101496015
190,820.2598594861292,2.833785663801482E-5,0.005374562366787616
191,818.8395323930354,2.8178109994504424E-5,0.00540274047678212
192,817.4162564918884,2.8031209910288024E-5,0.005430771686692409
193,815.9881453747456,2.8055609859934907E-5,0.005458827296552344
194,814.5456301849738,2.7936357357967323E-5,0.005486763653910311
195,813.1044176004634,2.7797130479962086E-5,0.005514560784390273
196,811.672371073242,2.7646316563588723E-5,0.005542207100953862
197,810.2459203252988,2.7517416364618582E-5,0.0055697245173184804
198,808.8191533773493,2.77285131219004E-5,0.005597453030440381
199,807.3880483859149,2.7844890305226274E-5,0.005625297920745607
200,805.950716555116,2.7858593345737065E-5,0.005653156514091344
201,804.5367836842931,2.7918128072015205E-5,0.0056810746421633584
202,803.0771276099541,2.8236453260932722E-5,0.005709311095424291
203,801.6087347954391,2.8297172305133296E-5,0.005737608267729424
204,800.1248768971765,2.8310093351902643E-5,0.005765918361081326
205,798.6341426291925,2.8357793790002608E-5,0.005794276154871329
206,797.1257413741923,2.8346664766458192E-5,0.005822622819637788
207,795.5970945459006,2.838630624419516E-5,0.005851009125881983
208,794.0744701862819,2.8433330964420207E-5,0.005879442456846403
209,792.5691954551493,2.8188564051419428E-5,0.0059076310208978225
210,791.0591620479562,2.811374287993735E-5,0.0059357447637777595
211,789.5366714706614,2.819602259694029E-5,0.0059639407863747
212,787.981652154721,2.831843124833415E-5,0.005992259217623034
213,786.405500502344,2.8349758539113475E-5,0.006020608976162148
214,784.8235193891977,2.8410162937252863E-5,0.0060490191390994005
215,783.2135579199677,2.864320984511585E-5,0.006077662348944517
216,781.566100897222,2.8783238449727132E-5,0.006106445587394244
217,779.9257926208263,2.8978916351838792E-5,0.006135424503746083
218,778.2717520152275,2.8972393481995125E-5,0.006164396897228077
219,776.6003886622921,2.9023205140821413E-5,0.006193420102368899
220,774.972704159032,2.855932043887136E-5,0.0062219794228077704
221,773.376712610789,2.865811676391983E-5,0.00625063753957169
222,771.7922652367179,2.843481428895451E-5,0.006279072353860645
223,770.1876352652165,2.8479383652443696E-5,0.006307551737513089
224,768.5661937950683,2.8432516779659513E-5,0.006335984254292748
225,766.9497307162989,2.8441387341785065E-5,0.006364425641634533
226,765.3412435136914,2.83320344993924E-5,0.0063927576761339255
227,763.7510286027426,2.804452277988847E-5,0.006420802198913814
228,762.1897164877192,2.7926036892481196E-5,0.006448728235806295
229,760.6672205200252,2.7763559238338165E-5,0.0064764917950446334
230,759.1379019750381,2.794048422328242E-5,0.006504432279267916
231,757.6089159102012,2.7895211516704098E-5,0.0065323274907846205
232,756.0746709209806,2.773292236531048E-5,0.006560060413149931
233,754.518284307334,2.7939735362894602E-5,0.006588000148512826
234,752.953259379196,2.804157003763988E-5,0.006616041718550466
235,751.4360436092885,2.7874603328703262E-5,0.00664391632187917
236,749.959156668941,2.772255029297414E-5,0.006671638872172144
237,748.4749712598078,2.7792215359029317E-5,0.006699431087531174
238,746.9867756383858,2.7825857690351317E-5,0.006727256945221525
239,745.4892293031292,2.765874796031501E-5,0.00675491569318184
240,744.0257185988185,2.7887131521200034E-5,0.00678280282470304
241,742.5177830276784,2.799860813247533E-5,0.006810801432835516
242,740.989757413066,2.8200301599617853E-5,0.006839001734435133
243,739.430349250953,2.8384996437121252E-5,0.006867386730872255
244,737.8596042138819,2.792591457352211E-5,0.0068953126454457765
245,736.3157903188065,2.7797029928660084E-5,0.006923109675374436
246,734.7910629498258,2.77694179386611E-5,0.006950879093313098
247,733.2717360826005,2.7620129643455242E-5,0.006978499222956553
248,731.7218477894967,2.776206453929085E-5,0.007006261287495845
249,730.1689630843273,2.7564007134641662E-5,0.007033825294630486
250,728.6565556920067,2.755673374886802E-5,0.007061382028379354
251,727.1612521683406,2.7476778631133174E-5,0.007088858807010487
252,725.6336500660427,2.7496935528129508E-5,0.007116355742538617
253,724.0782218442083,2.746909911018118E-5,0.007143824841648798
254,722.5151376217912,2.7458689922211233E-5,0.00717128353157101
255,720.9158752861434,2.7867547195758654E-5,0.007199151078766768
256,719.3586296490739,2.7713753380251647E-5,0.00722686483214702
257,717.7956583245501,2.7716569907078124E-5,0.007254581402054098
258,716.2490409832246,2.782680635150956E-5,0.007282408208405608
259,714.6742969947135,2.7849464570999712E-5,0.007310257672976607
260,713.1194327150655,2.780565165469058E-5,0.007338063324631298
261,711.4866410326418,2.7976612075567603E-5,0.007366039936706865
262,709.9011930413826,2.8020775693878677E-5,0.007394060712400744
263,708.3347942087423,2.779897426074285E-5,0.0074218596866614875
264,706.7733338327494,2.786428193183325E-5,0.007449723968593321
265,705.2167371058374,2.778926521053299E-5,0.007477513233803854
266,703.697051650045,2.7900241999944878E-5,0.007505413475803799
267,702.2015783163496,2.8078274243584555E-5,0.007533491750047383
268,700.7261569620183,2.8090405282931795E-5,0.007561582155330315
269,699.2701444806316,2.7977526316929123E-5,0.007589559681647245
270,697.8224087600848,2.8088136309012796E-5,0.007617647817956257
271,696.3659969709984,2.81227468799353E-5,0.007645770564836193
272,694.8829828436232,2.8707187661218445E-5,0.0076744777524974115
273,693.4374402487717,2.8857969127878833E-5,0.00770333572162529
274,691.984574240911,2.8791441880286142E-5,0.007732127163505576
275,690.5315866790809,2.8645152975751713E-5,0.007760772316481328
276,689.1002831469427,2.8285317390209754E-5,0.007789057633871538
277,687.695455122655,2.83357074714383E-5,0.007817393341342977
278,686.2940049329887,2.8161489262493933E-5,0.007845554830605471
279,684.9307758764297,2.8041929660743886E-5,0.007873596760266215
280,683.5423537388932,2.808305742402649E-5,0.007901679817690242
281,682.1831587272972,2.8194507022355454E-5,0.007929874324712597
282,680.8550287327697,2.828197863635801E-5,0.007958156303348955
283,679.5270394499244,2.83813153486816E-5,0.007986537618697637
284,678.2149496198846,2.833419740576143E-5,0.008014871816103398
285,676.9653222733123,2.8156077905647502E-5,0.008043027894009045
286,675.7088514036595,2.8142614677355753E-5,0.008071170508686401
287,674.4631243901573,2.8169999335535165E-5,0.008099340508021937
288,673.2223628057483,2.831619858346962E-5,0.008127656706605407
289,671.9709576073292,2.848781837644943E-5,0.008156144524981855
290,670.7335039963449,2.8274071926241483E-5,0.008184418596908096
291,669.5187516185626,2.8409116076374233E-5,0.00821282771298447
292,668.2767873766118,2.869367765357768E-5,0.008241521390638048
293,667.0687112272813,2.8623572119290962E-5,0.00827014496275734
294,665.8570367366804,2.9245932353606757E-5,0.008299390895110946
295,664.5799949125014,2.920719098173363E-5,0.00832859808609268
296,663.2548877771949,2.9182115878145474E-5,0.008357780201970824
297,661.8634479284211,2.9234169184802E-5,0.008387014371155627
298,660.4704205644712,2.945984715361115E-5,0.008416474218309239
299,659.1755526716404,2.9119195906720276E-5,0.00844559341421596
300,657.8984000046938,2.9012645577646448E-5,0.008474606059793607
301,656.5934452618231,2.91369610463558E-5,0.008503743020839963
302,655.2634327847758,2.906382413181967E-5,0.008532806844971782
303,653.9570760290153,2.88137540920167E-5,0.0085616205990638
304,652.70879376884,2.8822422452027112E-5,0.008590443021515827
305,651.4995991706804,2.882912807176205E-5,0.00861927214958759
306,650.3417006750171,2.853931794290115E-5,0.00864781146753049
307,649.1442394411973,2.8829222487160695E-5,0.00867664069001765
308,647.9399352150037,2.8687811877826793E-5,0.008705328501895477
309,646.73709282158,2.856564950727315E-5,0.00873389415140275
310,645.4943410749285,2.8729118650706822E-5,0.008762623270053458
