#t,ESS,tempDiff,temp
0,1299.99999999998,0.0,0.0
1,1298.700000000002,1.710359800496902E-4,1.710359800496902E-4
2,1294.9027935721394,1.7373143720641844E-4,3.447674172561086E-4
3,1288.6862973148397,1.7448194023519017E-4,5.192493574912988E-4
4,1280.1728436072765,1.72830024849642E-4,6.920793823409408E-4
5,1269.4717644591562,1.729824369627026E-4,8.650618193036434E-4
6,1256.7935809091382,1.7234056115971637E-4,0.0010374023804633598
7,1242.1579799944418,1.7310058851685326E-4,0.0012105029689802131
8,1225.6649624243562,1.7459545074746089E-4,0.001385098419727674
9,1207.3645078332331,1.7374123922429442E-4,0.0015588396589519685
10,1187.4500230867463,1.7372448200909704E-4,0.0017325641409610655
11,1166.2046050810777,1.7230982722669117E-4,0.0019048739681877566
12,1143.5970630008221,1.712156820738947E-4,0.0020760896502616515
13,1119.9606319410245,1.7257668781451348E-4,0.002248666338076165
14,1095.6131056275542,1.7278978600696873E-4,0.0024214561240831337
15,1070.3143322201354,1.7197967875030949E-4,0.0025934358028334432
16,1044.2971035180008,1.7336024944602818E-4,0.0027667960522794713
17,1017.7036888989727,1.7269518812694954E-4,0.0029394912404064207
18,990.7531685932172,1.690169732285663E-4,0.003108508213634987
19,963.1026342821477,1.678122156631474E-4,0.0032763204292981345
20,934.7960451695869,1.685439787001152E-4,0.0034448644079982495
21,905.9139712209885,1.6952113133245775E-4,0.003614385539330707
22,876.5180041859134,1.683321272229913E-4,0.0037827176665536986
23,846.9532405787336,1.690838139930464E-4,0.003951801480546745
24,817.4539001334352,1.7202634819647055E-4,0.004123827828743216
25,787.8256738591716,1.7502969546649531E-4,0.004298857524209711
26,757.9866267859281,1.742762716033176E-4,0.004473133795813028
27,728.3912077002931,1.7529272396404042E-4,0.004648426519777068
28,698.3856433574479,1.747999173359301E-4,0.0048232264371129985
29,668.1311161395098,1.7451595319164647E-4,0.004997742390304645
30,638.1696976114516,1.7374900955301054E-4,0.005171491399857655
31,1298.7000000000023,1.644727003182835E-4,0.005335964100175938
32,1294.828600408807,1.6328051624218279E-4,0.005499244616418121
33,1288.405389677951,1.6082648622031884E-4,0.0056600711026384394
34,1279.4458910277417,1.594628628524878E-4,0.005819533965490928
35,1267.9787267080542,1.6013432152408384E-4,0.005979668287015011
36,1254.0607726081407,1.5823328076050412E-4,0.006137901567775515
37,1237.8165289311503,1.5780166224609632E-4,0.006295703230021612
38,1219.420514496937,1.574228886755789E-4,0.006453126118697191
39,1198.9111167987883,1.5669544756694405E-4,0.006609821566264135
40,1176.344916681431,1.5471868237063464E-4,0.006764540248634769
41,1151.8513734651947,1.5241515778886326E-4,0.006916955406423632
42,1125.6498040570666,1.4971157880429143E-4,0.007066666985227924
43,1097.7278245427303,1.483953991457467E-4,0.00721506238437367
44,1068.316655721162,1.4876602451544235E-4,0.007363828408889113
45,1037.6413746043288,1.4724860026677172E-4,0.007511077009155885
46,1005.919561051127,1.4650237347011683E-4,0.0076575793826260015
47,973.4068100456847,1.4651277844326E-4,0.0078040921610692615
48,940.0983411354789,1.4548347138143588E-4,0.007949575632450698
49,906.2654922528725,1.4479601983936207E-4,0.00809437165229006
50,872.1187096479619,1.4423943571014572E-4,0.008238611088000206
51,838.1417672667966,1.439099822430397E-4,0.008382521070243246
52,804.4482611716678,1.4534454440639813E-4,0.008527865614649644
53,770.9225050401379,1.4562366768454787E-4,0.008673489282334192
54,738.0805861000449,1.445823919840324E-4,0.008818071674318225
55,706.601716260069,1.4565706015211337E-4,0.008963728734470338
56,675.5371637302751,1.450005347615084E-4,0.009108729269231846
57,644.3398680922847,1.4256377341094592E-4,0.009251293042642793
58,1298.6999999999978,1.4228534415142123E-4,0.009393578386794214
59,1294.8293853228865,1.4208119699230947E-4,0.009535659583786524
60,1288.4266533926707,1.4083361306004466E-4,0.00967649319684657
61,1279.5495957332853,1.4092664962590435E-4,0.009817419846472475
62,1268.3027944685582,1.4131943721336346E-4,0.009958739283685838
63,1254.746965033906,1.4077176487666966E-4,0.010099511048562508
64,1238.9967786505363,1.3965532509524386E-4,0.010239166373657752
65,1221.1921662273287,1.3956437219356458E-4,0.010378730745851316
66,1201.4758230442276,1.3986293957766953E-4,0.010518593685428986
67,1179.9909157733375,1.400846629577258E-4,0.010658678348386711
68,1156.9009489361583,1.4011366931220584E-4,0.010798792017698917
69,1132.4224261233517,1.4073088816319952E-4,0.010939522905862116
70,1106.5616439329726,1.392892978134372E-4,0.011078812203675554
71,1079.6465462388312,1.3999939258431504E-4,0.01121881159625987
72,1051.7824533525918,1.4003021941997064E-4,0.011358841815679841
73,1023.0263734316034,1.398150476332308E-4,0.011498656863313072
74,993.6631539555491,1.403844894053468E-4,0.011639041352718418
75,963.8162983337496,1.396418425837282E-4,0.011778683195302146
76,933.672814940799,1.4005704727077252E-4,0.011918740242572919
77,903.3965361999021,1.4013751186112676E-4,0.012058877754434046
78,872.8629874822441,1.395050852733029E-4,0.012198382839707348
79,842.4382293491789,1.39440791949183E-4,0.01233782363165653
80,812.1050897122791,1.3935632789424145E-4,0.012477179959550772
81,781.9736432506644,1.392640603733625E-4,0.012616444019924134
82,752.1817181646877,1.3837027215516534E-4,0.0127548142920793
83,722.8148188808486,1.3834725702421496E-4,0.012893161549103515
84,694.0881662400559,1.3971120852138144E-4,0.013032872757624896
85,665.96737870976,1.406815270406538E-4,0.01317355428466555
86,638.4655000899821,1.4076317247344334E-4,0.013314317457138994
87,1298.6999999999898,1.4341337959945487E-4,0.013457730836738449
88,1294.8495900151393,1.4426554049366583E-4,0.013601996377232115
89,1288.5350120846572,1.444172650796172E-4,0.013746413642311732
90,1279.8331456940168,1.4494700931514293E-4,0.013891360651626876
91,1268.8706012883447,1.451643237254723E-4,0.014036524975352347
92,1255.7875046280342,1.4692490429683407E-4,0.01418344987964918
93,1240.7206919341643,1.485390058627259E-4,0.014331988885511907
94,1223.8205757121455,1.493696582510379E-4,0.014481358543762946
95,1205.1867817192997,1.5039281804852164E-4,0.014631751361811468
96,1185.013486594048,1.5117846842203358E-4,0.014782929830233502
97,1163.4302456326288,1.5192000839572804E-4,0.01493484983862923
98,1140.66113854829,1.5270659840959126E-4,0.015087556437038822
99,1116.7836444762222,1.5270708806491655E-4,0.015240263525103739
100,1091.9768855416637,1.5420583669980656E-4,0.015394469361803545
101,1066.315765978521,1.5514555851131863E-4,0.015549614920314864
102,1039.9611847418087,1.5680786304572965E-4,0.015706422783360593
103,1013.034337008272,1.5892581672754744E-4,0.01586534860008814
104,985.6904192021384,1.5988264721522935E-4,0.01602523124730337
105,957.923384849228,1.6021864569167797E-4,0.016185449892995047
106,929.9565265880119,1.6121756670214751E-4,0.016346667459697196
107,901.8292075720298,1.6142613914753914E-4,0.016508093598844736
108,873.6277168529699,1.617437105136749E-4,0.01666983730935841
109,845.4170049771046,1.6284199044064724E-4,0.016832679299799057
110,817.2403904444936,1.6298284908470114E-4,0.016995662148883758
111,789.5120452032485,1.6514245445695214E-4,0.01716080460334071
112,762.13336636084,1.656176001655125E-4,0.01732642220350622
113,735.1493591889692,1.6650387275143465E-4,0.017492926076257655
114,708.4218323073611,1.6687903020829798E-4,0.017659805106465955
115,682.1273085502172,1.6834378076792554E-4,0.01782814888723388
116,656.348195643548,1.6946004970349636E-4,0.017997608936937377
117,630.9934945680629,1.7054051090398785E-4,0.018168149447841366
118,1298.7000000000019,1.717929577177971E-4,0.018339942405559164
119,1294.8551340548122,1.7282711200643206E-4,0.018512769517565596
120,1288.5577855922097,1.7347668519828127E-4,0.01868624620276388
121,1279.9128385361557,1.7405183145470922E-4,0.018860298034218587
122,1269.0257397676323,1.758276069901216E-4,0.01903612564120871
123,1256.0278862187258,1.771119175360878E-4,0.019213237558744798
124,1241.0468693829314,1.7886800617809842E-4,0.019392105564922896
125,1224.2276088837973,1.805120861474062E-4,0.019572617651070302
126,1205.7319368086594,1.8159442879584956E-4,0.019754212079866152
127,1185.7452518957625,1.814220736034975E-4,0.01993563415346965
128,1164.3990463276587,1.8251444038397069E-4,0.02011814859385362
129,1141.740291681633,1.8344313577796183E-4,0.02030159172963158
130,1117.9585973189742,1.8434920997558222E-4,0.020485940939607164
131,1093.2725995042945,1.850758933808387E-4,0.020671016832988002
132,1067.6791438427347,1.8662211131040767E-4,0.020857638944298408
133,1041.299448459164,1.881843741556501E-4,0.021045823318454056
134,1014.202599141245,1.896576105396457E-4,0.021235480928993702
135,986.6727655782724,1.9124780396995216E-4,0.021426728732963654
136,958.8134930074302,1.9298627347694473E-4,0.0216197150064406
137,930.7915687492128,1.951255310153851E-4,0.021814840537455985
138,902.6251857233403,1.9660971580617604E-4,0.02201145025326216
139,874.4091975057199,1.9853983225328776E-4,0.022209990085515448
140,846.1197724057978,1.9975926549151078E-4,0.02240974935100696
141,817.8554497531288,2.0187555021656593E-4,0.022611624901223527
142,789.7012288654943,2.0297182287084636E-4,0.022814596724094374
143,761.7452128938876,2.043777389702914E-4,0.023018974463064664
144,734.0830554252367,2.0675117012318737E-4,0.023225725633187852
145,706.721607324515,2.0679877161555214E-4,0.023432524404803406
146,679.7253625042567,2.0849468044014367E-4,0.02364101908524355
147,653.3193875010869,2.106040266861696E-4,0.02385162311192972
148,627.5323093994072,2.129193436282665E-4,0.02406454245555799
149,1298.6999999999955,2.0816494969256525E-4,0.024272707405250553
150,1294.8734228242836,2.1027776421143424E-4,0.02448298516946199
151,1288.6255866862653,2.1255008431109312E-4,0.02469553525377308
152,1280.0911628131948,2.146395632742639E-4,0.024910174817047343
153,1269.3774266509,2.1655961350537865E-4,0.025126734430552723
154,1256.6279947356795,2.183797018562222E-4,0.025345114132408947
155,1241.9817196749557,2.2158819450130413E-4,0.025566702326910253
156,1225.5613276214165,2.240013511385407E-4,0.025790703678048792
157,1207.4736334942875,2.2655155862500546E-4,0.026017255236673798
158,1187.8665555457071,2.2931424925010454E-4,0.026246569485923903
159,1166.8516152034117,2.3150790241307226E-4,0.026478077388336976
160,1144.5930662733906,2.3254424275762894E-4,0.026710621631094604
161,1121.2230979394706,2.3380848598733803E-4,0.026944430117081943
162,1096.9213187183627,2.360641118044868E-4,0.02718049422888643
163,1071.6949351829076,2.3883268057361522E-4,0.027419326909460046
164,1045.7061911548485,2.4099022404778475E-4,0.02766031713350783
165,1019.114554160937,2.4323432339173323E-4,0.027903551456899562
166,992.1022026648367,2.4634122402491306E-4,0.028149892680924476
167,964.6563839005712,2.492622724949106E-4,0.028399154953419388
168,937.099546280341,2.5181919604445505E-4,0.028650974149463843
169,909.3314195807528,2.530845835637439E-4,0.028904058733027586
170,881.2740108743178,2.5313413026073153E-4,0.029157192863288318
171,853.0733695650285,2.5423536252983716E-4,0.029411428225818156
172,824.87670315804,2.5521625717095164E-4,0.029666644482989106
173,796.7975388787693,2.556791739946929E-4,0.029922323656983798
174,768.8646643909543,2.5634334419810656E-4,0.030178667001181905
175,741.0845658795266,2.573123370168171E-4,0.03043597933819872
176,713.5444347325496,2.599191085112847E-4,0.030695898446710005
177,686.3159384066491,2.6150841683447945E-4,0.030957406863544486
178,659.5138781052793,2.6406481837638705E-4,0.03122147168192087
179,633.3098571011577,2.6775783274160764E-4,0.03148922951466248
180,1298.7000000000085,2.665141167041737E-4,0.031755743631366656
181,1294.8663389215933,2.6896006924453106E-4,0.03202470370061119
182,1288.598218683079,2.702286719067442E-4,0.03229493237251793
183,1280.013424072425,2.729384348407586E-4,0.03256787080735869
184,1269.2179662383005,2.747438081671956E-4,0.032842614615525886
185,1256.3357079525379,2.772538603176109E-4,0.0331198684758435
186,1241.4982196003446,2.7913557927424957E-4,0.03339900405511775
187,1224.8535228668982,2.814520075483754E-4,0.03368045606266612
188,1206.54801981349,2.8497716302374815E-4,0.033965433225689866
189,1186.6876997138995,2.8751008527834574E-4,0.03425294331096821
190,1165.4188137807737,2.907861510147279E-4,0.03454372946198294
191,1142.9472015259457,2.9340778422307903E-4,0.03483713724620602
192,1119.4475564911352,2.964119591405957E-4,0.035133549205346615
193,1094.9235575764303,3.0021826405421864E-4,0.035433767469400836
194,1069.5197790371521,3.034830932256099E-4,0.035737250562626444
195,1043.4209518975779,3.040813915772056E-4,0.03604133195420365
196,1016.5998872255026,3.0744011710082467E-4,0.03634877207130448
197,989.2910188954788,3.0996954963655805E-4,0.036658741620941036
198,961.6260730425678,3.1361591258021577E-4,0.03697235753352125
199,933.5969340758461,3.1459313313246886E-4,0.037286950666653725
200,905.4667646101639,3.1811033607067354E-4,0.0376050610027244
201,877.1737512979404,3.2089678522144053E-4,0.03792595778794584
202,848.7007405255434,3.231564931627387E-4,0.038249114281108575
203,820.2283049372708,3.2432628369563203E-4,0.038573440564804204
204,791.9594223238826,3.2723442956446064E-4,0.03890067499436867
205,763.7364334501092,3.28544997347267E-4,0.039229219991715934
206,735.634571479693,3.2855424106368605E-4,0.03955777423277962
207,707.7660692248247,3.297043581113707E-4,0.03988747859089099
208,680.3462602724513,3.3259569672513205E-4,0.04022007428761613
209,653.1442285609897,3.3418920911165825E-4,0.040554263496727784
210,626.1745395840138,3.36886669996606E-4,0.04089115016672439
211,1298.699999999989,3.2881037898918234E-4,0.04121996054571357
212,1294.8541748267178,3.3166690045375626E-4,0.041551627446167326
213,1288.5422691892572,3.3309362567599004E-4,0.041884721071843316
214,1279.84635339269,3.355257177571897E-4,0.042220246789600506
215,1268.874422975155,3.3733095090451057E-4,0.04255757774050502
216,1255.7267698763405,3.4085228255658826E-4,0.0428984300230616
217,1240.4918216919118,3.428366516931684E-4,0.04324126667475477
218,1223.3035044900862,3.4324757387604E-4,0.043584514248630815
219,1204.2569438905632,3.456621005124205E-4,0.043930176349143236
220,1183.502030953828,3.458502473731724E-4,0.04427602659651641
221,1161.1682304123826,3.454947417965371E-4,0.044621521338312944
222,1137.436408846882,3.473378879582765E-4,0.044968859226271224
223,1112.4376909467464,3.4827546991261484E-4,0.04531713469618384
224,1086.3076078938911,3.5008668502454815E-4,0.04566722138120839
225,1059.1518906226086,3.5323111572578255E-4,0.04602045249693418
226,1031.132772640641,3.5574036770101856E-4,0.04637619286463519
227,1002.3357858531286,3.5766203601081804E-4,0.046733854900646014
228,972.8606936158208,3.5921712558184375E-4,0.04709307202622786
229,942.8992565230878,3.5966264814818374E-4,0.047452734674376044
230,912.5718854562259,3.605646108158231E-4,0.04781329928519187
231,881.9459833910945,3.620468499957797E-4,0.04817534613518765
232,851.3054713032162,3.6335184755338575E-4,0.04853869798274103
233,820.6081383727238,3.643356611018657E-4,0.0489030336438429
234,790.0146748180804,3.6795213808497174E-4,0.04927098578192787
235,759.7075054753694,3.710586089145924E-4,0.049642044390842466
236,729.7081392239567,3.7523256109356427E-4,0.05001727695193603
237,699.9516139216125,3.762608486913725E-4,0.0503935378006274
238,670.572993890012,3.765124883553445E-4,0.050770050288982745
239,641.7410636677097,3.789224442205827E-4,0.051148972733203325
240,1298.6999999999757,3.6755588240436473E-4,0.05151652861560769
241,1294.842644459684,3.7092146247391026E-4,0.0518874500780816
242,1288.4998874486596,3.7258090983844424E-4,0.05226003098792004
243,1279.765041662539,3.726833290169474E-4,0.05263271431693699
244,1268.7365466147724,3.742084303731232E-4,0.05300692274731011
245,1255.533739360226,3.758837134115439E-4,0.05338280646072165
246,1240.2736614274604,3.7670434461574594E-4,0.0537595108053374
247,1223.0943318680215,3.805015508500024E-4,0.0541400123561874
248,1204.1330527100613,3.8300065369910975E-4,0.05452301300988651
249,1183.5494887979712,3.840408220936631E-4,0.054907053831980177
250,1161.4949120335148,3.875041970849646E-4,0.05529455802906514
251,1138.128762068639,3.9080239346896557E-4,0.05568536042253411
252,1113.6182408369464,3.938821797316233E-4,0.05607924260226573
253,1088.137938325405,3.9588915236716626E-4,0.056475131754632896
254,1061.8624141413648,4.015000593459202E-4,0.05687663181397882
255,1034.9028204687793,4.062898034721922E-4,0.05728292161745101
256,1007.3996165963958,4.10236401480294E-4,0.0576931580189313
257,979.4711637693669,4.1472276737307054E-4,0.05810788078630437
258,951.251057915188,4.1900597815888924E-4,0.05852688676446326
259,922.8392269343889,4.2384070459180345E-4,0.05895072746905506
260,894.2327967394766,4.272636071035784E-4,0.05937799107615864
261,865.7139849819692,4.32437124129936E-4,0.059810428200288576
262,837.3074777648131,4.3889771348013125E-4,0.060249325913768706
263,809.1583401731523,4.448009322861467E-4,0.06069412684605485
264,781.2632836338606,4.4969002710973366E-4,0.061143816873164586
265,753.732053705923,4.5371420181932273E-4,0.06159753107498391
266,726.5718798459588,4.5687431893128147E-4,0.06205440539391519
267,699.7341618668505,4.6004439850735716E-4,0.06251444979242254
268,673.387844909015,4.6476121999966167E-4,0.06297921101242221
269,647.6590183616718,4.683055795638709E-4,0.06344751659198608
270,1298.6999999999948,4.7581284119501506E-4,0.06392332943318109
271,1294.8680268550384,4.7803290926482346E-4,0.06440136234244591
272,1288.6126722036313,4.826881501786761E-4,0.06488405049262458
273,1280.0611809128943,4.862206734382927E-4,0.06537027116606287
274,1269.3539331740742,4.931430256773222E-4,0.06586341419174019
275,1256.6180949782524,4.995483949136636E-4,0.06636296258665385
276,1242.0084357305857,5.044180058956158E-4,0.06686738059254946
277,1225.6797095090647,5.101877868324536E-4,0.06737756837938191
278,1207.802789560831,5.186445681537688E-4,0.06789621294753569
279,1188.5770627671513,5.281096709651995E-4,0.06842432261850089
280,1168.0832418352365,5.368028128697713E-4,0.06896112543137066
281,1146.5479147296896,5.411675060080869E-4,0.06950229293737875
282,1124.0175741492758,5.465560834704123E-4,0.07004884902084917
283,1100.6885545820207,5.51427717179067E-4,0.07060027673802824
284,1076.5822477176475,5.593019469055071E-4,0.07115957868493375
285,1051.8624897874397,5.660570757899542E-4,0.0717256357607237
286,1026.7255104198032,5.714110147954632E-4,0.07229704677551917
287,1001.1862194987244,5.818448674430515E-4,0.07287889164296221
288,975.3754585227704,5.887402630967475E-4,0.07346763190605896
289,949.530465403866,5.996539049794463E-4,0.0740672858110384
290,923.6596482236586,6.094904858406845E-4,0.07467677629687909
291,897.7475942502726,6.155271039121044E-4,0.0752923034007912
292,871.8583204924502,6.238756098113318E-4,0.07591617901060253
293,846.0478602853549,6.297038207864939E-4,0.07654588283138902
294,820.3522900036945,6.31191476388479E-4,0.0771770743077775
295,794.8983922533181,6.364745901875152E-4,0.07781354889796502
296,769.7602580053585,6.48037216453243E-4,0.07846158611441827
297,744.8284507352497,6.544618626580884E-4,0.07911604797707636
298,720.1652797959047,6.590370502849336E-4,0.07977508502736129
299,695.9169303791152,6.652309763438382E-4,0.08044031600370513
300,671.9766011437331,6.674763648515301E-4,0.08110779236855666
301,648.5062634735605,6.782312334568799E-4,0.08178602360201354
302,1298.6999999999925,6.923975063907812E-4,0.08247842110840432
303,1294.8818755916282,6.970132858526795E-4,0.08317543439425701
304,1288.6702610503446,7.061691815166476E-4,0.08388160357577365
305,1280.1776062900087,7.104843009608645E-4,0.08459208787673451
306,1269.521459852134,7.163338816786033E-4,0.08530842175841312
307,1256.8396743115345,7.175970817680819E-4,0.0860260188401812
308,1242.2709089898651,7.244902420446035E-4,0.0867505090822258
309,1225.9217415803346,7.291705408065621E-4,0.08747967962303237
310,1207.9571661190635,7.355751310894574E-4,0.08821525475412183
311,1188.5090634110368,7.48527711173408E-4,0.08896378246529524
