#t,ESS,tempDiff,temp
0,200.00000000000065,0.0,0.0
1,199.99981928443412,4.986962247176579E-6,4.986962247176579E-6
2,199.99929350744037,4.931958402948275E-6,9.918920650124854E-6
3,199.99842294012097,4.919105243975398E-6,1.4838025894100252E-5
4,199.99718718658465,4.974147801819602E-6,1.9812173695919853E-5
5,199.99557459436053,5.029334874243555E-6,2.4841508570163408E-5
6,199.99360502194762,4.981096561955226E-6,2.9822605132118636E-5
7,199.99128498982134,4.9852125362186004E-6,3.4807817668337234E-5
8,199.98858129018276,5.006279570028646E-6,3.981409723836588E-5
9,199.98548867272604,5.01081473340658E-6,4.482491197177246E-5
10,199.98199203776522,5.060579328260414E-6,4.988549130003288E-5
11,199.9781270611301,5.087275397368337E-6,5.497276669740121E-5
12,199.97390172542478,5.116223293800761E-6,6.008898999120198E-5
13,199.96938613019557,5.087011453853561E-6,6.517600144505554E-5
14,199.96458003088213,5.108227272387997E-6,7.028422871744354E-5
15,199.9595397163705,5.036853444903033E-6,7.532108216234657E-5
16,199.9542945842781,4.863545156143516E-6,8.018462731849009E-5
17,199.94865136518175,4.87874588519198E-6,8.506337320368206E-5
18,199.94262520649855,4.855624594504835E-6,8.99189977981869E-5
19,199.93634725416794,4.838772903151317E-6,9.475777070133823E-5
20,199.92974765674424,4.783890934812369E-6,9.95416616361506E-5
21,199.92275701429386,4.8591335257811255E-6,1.0440079516193173E-4
22,199.9153049022293,4.905602360535068E-6,1.093063975224668E-4
23,199.90757036590387,4.9143038597969075E-6,1.142207013822637E-4
24,199.8996220889751,4.838121597403171E-6,1.1905882297966687E-4
25,199.89129311570514,4.9156630822434025E-6,1.239744860619103E-4
26,199.88279273420648,4.848153946688104E-6,1.288226400085984E-4
27,199.87403506746404,4.796151612521899E-6,1.336187916211203E-4
28,199.86516468074666,4.7386282804910605E-6,1.3835741990161137E-4
29,199.85614237505234,4.695246621037901E-6,1.4305266652264926E-4
30,199.84706122987083,4.671771485959427E-6,1.477244380086087E-4
31,199.83791500021363,4.580684981908459E-6,1.5230512299051714E-4
32,199.82868291494478,4.5233197741435826E-6,1.5682844276466073E-4
33,199.81923214426683,4.469570964497172E-6,1.612980137291579E-4
34,199.80947528260776,4.456358689052845E-6,1.6575437241821074E-4
35,199.79962130983068,4.456886855151451E-6,1.702112592733622E-4
36,199.78963075590667,4.428067885320172E-6,1.7463932715868237E-4
37,199.77940925086776,4.454333265415934E-6,1.790936604240983E-4
38,199.76910545014044,4.51092147725404E-6,1.8360458190135233E-4
39,199.75842402126838,4.5191224083289804E-6,1.881237043096813E-4
40,199.74745234007773,4.557459368939531E-6,1.9268116367862084E-4
41,199.7360342404401,4.554136073540035E-6,1.9723529975216087E-4
42,199.7242480258625,4.572846146549981E-6,2.0180814589871085E-4
43,199.71223553377948,4.5640253284366415E-6,2.063721712271475E-4
44,199.69992167968505,4.578036177609616E-6,2.109502074047571E-4
45,199.68734425836473,4.640183641328895E-6,2.1559039104608602E-4
46,199.67468449161066,4.628806129278609E-6,2.2021919717536462E-4
47,199.66183136770044,4.66291568821382E-6,2.2488211286357843E-4
48,199.64884879372144,4.666693906266544E-6,2.2954880676984499E-4
49,199.63555539454447,4.704289275286353E-6,2.3425309604513134E-4
50,199.62221977195293,4.648207615352429E-6,2.3890130366048377E-4
51,199.6085324906982,4.647416928411442E-6,2.435487205888952E-4
52,199.59450282267085,4.651618367476523E-6,2.482003389563717E-4
53,199.5800445487287,4.723205283488474E-6,2.529235442398602E-4
54,199.56519785573335,4.7249410979833855E-6,2.576484853378436E-4
55,199.55020197058718,4.76126672693871E-6,2.624097520647823E-4
56,199.53484771753165,4.814282522968622E-6,2.6722403458775095E-4
57,199.5196011041752,4.784275112482057E-6,2.72008309700233E-4
58,199.50407932535177,4.798911603145829E-6,2.768072213033788E-4
59,199.48837575566495,4.866956898544218E-6,2.81674178201923E-4
60,199.47247503581946,4.836200484424916E-6,2.865103786863479E-4
61,199.4562552131109,4.9613279192040905E-6,2.91471706605552E-4
62,199.43976230472964,4.97984474569289E-6,2.964515513512449E-4
63,199.42314682596592,4.966865758532027E-6,3.0141841710977697E-4
64,199.40603372665666,4.980752251329893E-6,3.0639916936110685E-4
65,199.38829442968526,4.9927310669936775E-6,3.113919004281005E-4
66,199.37015643894833,4.999746663256818E-6,3.1639164709135735E-4
67,199.35195011977305,4.969547180798871E-6,3.2136119427215624E-4
68,199.33358076068654,4.918836369705765E-6,3.26280030641862E-4
69,199.31510964252428,4.853452034720804E-6,3.3113348267658284E-4
70,199.29655948302715,4.813979180634599E-6,3.359474618572174E-4
71,199.27804174078386,4.754820349671945E-6,3.407022822068894E-4
72,199.25890889947306,4.808211351936934E-6,3.4551049355882634E-4
73,199.2393699961982,4.820429505386442E-6,3.503309230642128E-4
74,199.21954101016075,4.8484611044527025E-6,3.551793841686655E-4
75,199.19929397929562,4.795169502385305E-6,3.599745536710508E-4
76,199.17900675092753,4.8002802705665145E-6,3.647748339416173E-4
77,199.15886246780283,4.7665689483833415E-6,3.6954140289000064E-4
78,199.13879238165737,4.74717320125046E-6,3.742885760912511E-4
79,199.1188838588065,4.7470242117131665E-6,3.790356003029643E-4
80,199.0985056530855,4.750581811013872E-6,3.837861821139782E-4
81,199.0783860755251,4.749997616893663E-6,3.885361797308719E-4
82,199.05790968691596,4.7588957380120515E-6,3.932950754688839E-4
83,199.03703545150248,4.805067249271725E-6,3.981001427181556E-4
84,199.01599199846223,4.8076663437624255E-6,4.0290780906191803E-4
85,198.99475744698975,4.861840867125087E-6,4.0776964992904314E-4
86,198.97317916702937,4.910298586332495E-6,4.126799485153756E-4
87,198.95211751573555,4.839581884252896E-6,4.175195303996285E-4
88,198.93084957445228,4.818239277581467E-6,4.2233776967721E-4
89,198.91002761261052,4.7771933311307635E-6,4.2711496300834075E-4
90,198.8888242495902,4.844388402978609E-6,4.3195935141131936E-4
91,198.86812241013794,4.732822336496076E-6,4.366921737478154E-4
92,198.8464187899694,4.795760760961905E-6,4.4148793450877734E-4
93,198.8245352400859,4.7852944917549285E-6,4.4627322900053226E-4
94,198.8025197162794,4.725599275468764E-6,4.5099882827600104E-4
95,198.78039754584444,4.748970658384721E-6,4.5574779893438577E-4
96,198.75840486597184,4.654571169163504E-6,4.6040237010354926E-4
97,198.73627120993325,4.564993207931192E-6,4.6496736331148045E-4
98,198.71410954985646,4.620883009186311E-6,4.695882463206668E-4
99,198.69189551243005,4.588295762217023E-6,4.741765420828838E-4
100,198.66936107474123,4.647413856843188E-6,4.7882395593972703E-4
101,198.64643284306564,4.6602964045227694E-6,4.834842523442498E-4
102,198.62387009239472,4.561440814743512E-6,4.880456931589933E-4
103,198.60179539599548,4.539325625369851E-6,4.925850187843632E-4
104,198.57983357326418,4.544609609574746E-6,4.971296283939379E-4
105,198.55746313083273,4.563413929150597E-6,5.016930423230885E-4
106,198.53510775600333,4.563761401078854E-6,5.062568037241674E-4
107,198.51257816099894,4.592689666181233E-6,5.108494933903486E-4
108,198.49037988414318,4.622129728551165E-6,5.154716231188998E-4
109,198.46763826675013,4.613501466391254E-6,5.200851245852911E-4
110,198.4447412889185,4.672660989916545E-6,5.247577855752076E-4
111,198.42220062321883,4.641280987692541E-6,5.293990665629001E-4
112,198.39870624015543,4.681120357712427E-6,5.340801869206125E-4
113,198.37543333470234,4.569905691029321E-6,5.386500926116418E-4
114,198.3520565980263,4.581976500873961E-6,5.432320691125158E-4
115,198.32824778799073,4.546540802373194E-6,5.47778609914889E-4
116,198.30400288032484,4.553548529467804E-6,5.523321584443568E-4
117,198.27959889530533,4.52722374725473E-6,5.568593821916115E-4
118,198.25427718442674,4.534903672705272E-6,5.613942858643168E-4
119,198.2288614756465,4.606255721871382E-6,5.660005415861882E-4
120,198.203725273379,4.630793406777482E-6,5.706313349929657E-4
121,198.17899271445154,4.63785573023797E-6,5.752691907232037E-4
122,198.15423812570657,4.6265712000545926E-6,5.798957619232583E-4
123,198.1295968557675,4.622520831770227E-6,5.845182827550285E-4
124,198.10453241866566,4.607288921470659E-6,5.891255716764991E-4
125,198.079568776261,4.6069612296327065E-6,5.937325329061318E-4
126,198.0538631006322,4.603899402026785E-6,5.983364323081585E-4
127,198.02804689753617,4.625876538113406E-6,6.02962308846272E-4
128,198.00196683092508,4.648331655239167E-6,6.076106405015112E-4
129,197.9753397703342,4.639742747250326E-6,6.122503832487614E-4
130,197.94796178480533,4.673965633759134E-6,6.169243488825206E-4
131,197.92057148201613,4.60978376351608E-6,6.215341326460366E-4
132,197.89252223493818,4.726271684031247E-6,6.262604043300678E-4
133,197.86525146065986,4.661730922585529E-6,6.309221352526534E-4
134,197.83803336771447,4.6595824970953375E-6,6.355817177497487E-4
135,197.81046169397106,4.683920054836039E-6,6.402656378045848E-4
136,197.78245664542953,4.708102252746944E-6,6.449737400573317E-4
137,197.7543600737927,4.661732662943446E-6,6.496354727202751E-4
138,197.72568420547438,4.651951033403391E-6,6.542874237536786E-4
139,197.6970848049489,4.636523320801034E-6,6.589239470744796E-4
140,197.66859226694328,4.615544912485689E-6,6.635394919869653E-4
141,197.63916268316754,4.600054739383704E-6,6.68139546726349E-4
142,197.61021299891587,4.577062798337507E-6,6.727166095246864E-4
143,197.58027936600672,4.59096194113179E-6,6.773075714658182E-4
144,197.5506054429018,4.603422637966377E-6,6.819109941037845E-4
145,197.52082360587536,4.5856296965698235E-6,6.864966238003543E-4
146,197.49024886857657,4.579960782312638E-6,6.91076584582667E-4
147,197.45895160013498,4.645571945475041E-6,6.957221565281421E-4
148,197.42821623236384,4.63810410515967E-6,7.003602606333017E-4
149,197.39774644967505,4.668080031981424E-6,7.050283406652832E-4
150,197.36744875191494,4.7298499597367345E-6,7.097581906250199E-4
151,197.3368483565116,4.749965695560115E-6,7.1450815632058E-4
152,197.3061147230719,4.798091688819023E-6,7.193062480093991E-4
153,197.27485551076967,4.780603751937753E-6,7.240868517613369E-4
154,197.24373623422932,4.77450898788513E-6,7.288613607492221E-4
155,197.21190753807718,4.791123018045033E-6,7.336524837672671E-4
156,197.1799860451788,4.8361047456501544E-6,7.384885885129173E-4
157,197.14718454092332,4.838266034558018E-6,7.433268545474753E-4
158,197.1134728776309,4.8519301485669985E-6,7.481787846960423E-4
159,197.07891171823036,4.8679501969617475E-6,7.53046734893004E-4
160,197.0444410048182,4.863979435443921E-6,7.579107143284479E-4
161,197.00995994487502,4.864509266405711E-6,7.627752235948536E-4
162,196.9743865004834,4.860514450281018E-6,7.676357380451347E-4
163,196.9385988103931,4.913966744999216E-6,7.725497047901339E-4
164,196.90396216807468,4.8867063089521546E-6,7.77436411099086E-4
165,196.86837868643903,4.9704602061624185E-6,7.824068713052485E-4
166,196.8327383817136,4.98578430319939E-6,7.873926556084479E-4
167,196.79651299276026,5.034224202709923E-6,7.924268798111578E-4
168,196.76026688488548,4.95603735858266E-6,7.973829171697405E-4
169,196.72371274540927,4.88226102422974E-6,8.022651781939702E-4
170,196.6867426420853,4.866707832017307E-6,8.071318860259876E-4
171,196.64931200555546,4.972974300797723E-6,8.121048603267853E-4
172,196.61148097846677,4.949108923857936E-6,8.170539692506433E-4
173,196.573774690959,4.914049699119868E-6,8.219680189497632E-4
174,196.53529026981732,4.932844072072202E-6,8.269008630218354E-4
175,196.49662592529754,4.918220075417189E-6,8.318190830972526E-4
176,196.45849880269338,4.950681632545678E-6,8.367697647297983E-4
177,196.42003715720764,4.989711396068926E-6,8.417594761258672E-4
178,196.38136816773786,5.0168849442814544E-6,8.467763610701486E-4
179,196.3425890924297,4.9145295675808E-6,8.516908906377295E-4
180,196.30352117563413,4.917470999612955E-6,8.566083616373424E-4
181,196.26433330595987,4.942559661252692E-6,8.61550921298595E-4
182,196.2241072360995,4.972925299042182E-6,8.665238465976372E-4
183,196.1837830846834,4.860479814787406E-6,8.713843264124245E-4
184,196.14377564983738,4.906018910889329E-6,8.762903453233138E-4
185,196.1023340135019,4.994307100606442E-6,8.812846524239203E-4
186,196.06137200959566,4.917006725173267E-6,8.862016591490936E-4
187,196.02004556282216,4.88531976014847E-6,8.91086978909242E-4
188,195.97840641042447,4.985276775815802E-6,8.960722556850578E-4
189,195.93719213998534,4.922274621986304E-6,9.009945303070441E-4
190,195.89640211363988,4.891300719671069E-6,9.058858310267152E-4
191,195.85456398830917,4.947874332969036E-6,9.108337053596842E-4
192,195.81218104504177,4.93871982025535E-6,9.157724251799396E-4
193,195.769713008726,4.997566542827019E-6,9.207699917227666E-4
194,195.72681139940428,5.014722295146492E-6,9.257847140179131E-4
195,195.68439617689347,4.934550957592272E-6,9.307192649755054E-4
196,195.64084699486307,5.024793586160403E-6,9.357440585616658E-4
197,195.59611027981154,5.022838675810538E-6,9.407668972374764E-4
198,195.55128910382086,5.0428707790781824E-6,9.458097680165546E-4
199,195.5053551714287,5.104872579993844E-6,9.509146405965484E-4
200,195.45974999863492,5.120027160430233E-6,9.560346677569786E-4
201,195.41340573168495,5.130512804076454E-6,9.611651805610551E-4
202,195.36736135858735,5.099994176907772E-6,9.662651747379628E-4
203,195.3228248004226,5.0210461848371325E-6,9.712862209227999E-4
204,195.27931566547923,4.962874299756134E-6,9.762490952225561E-4
205,195.23567143132706,4.952748385660206E-6,9.812018436082162E-4
206,195.19079063709978,4.9533048392268184E-6,9.86155148447443E-4
207,195.14502340326894,5.005320055268023E-6,9.91160468502711E-4
208,195.0990704773558,4.988088544468007E-6,9.96148557047179E-4
209,195.05311358446886,5.016631183045382E-6,0.0010011651882302244
210,195.0070117201351,5.023602705045384E-6,0.0010061887909352698
211,194.96090248042796,5.032279761684575E-6,0.0010112210706969544
212,194.91381882273856,4.99578619956162E-6,0.001016216856896516
213,194.86640277375562,5.019297959869553E-6,0.0010212361548563858
214,194.81994547779308,5.018057258217483E-6,0.0010262542121146033
215,194.7721770247331,5.111026794555716E-6,0.001031365238909159
216,194.72342839714307,5.143443596134712E-6,0.0010365086825052936
217,194.67477355165576,5.170529406940592E-6,0.0010416792119122343
218,194.62540607657206,5.0944435493127925E-6,0.001046773655461547
219,194.57684620289908,5.068585493715757E-6,0.0010518422409552628
220,194.5287618116654,5.067185450979654E-6,0.0010569094264062425
221,194.47984539937497,5.032307913689257E-6,0.0010619417343199317
222,194.4293510155592,5.109229532878072E-6,0.0010670509638528098
223,194.37817170470822,5.082486110545138E-6,0.0010721334499633548
224,194.32599137630206,5.103871618101245E-6,0.0010772373215814561
225,194.27449040208273,5.066516478986933E-6,0.001082303838060443
226,194.22290904172638,5.046238978350165E-6,0.0010873500770387933
227,194.17090675818724,4.997575699673777E-6,0.001092347652738467
228,194.1175872685626,4.964124921759207E-6,0.0010973117776602263
229,194.0653730811836,4.969169909416409E-6,0.0011022809475696427
230,194.01323902272077,4.9763126085969085E-6,0.0011072572601782396
231,193.9611941180493,4.99473280205005E-6,0.0011122519929802897
232,193.90810871904682,5.025749831543579E-6,0.0011172777428118332
233,193.85737603159112,4.8819965546332766E-6,0.0011221597393664664
234,193.80540929606866,4.891308560969033E-6,0.0011270510479274355
235,193.75486510213906,4.80595115090956E-6,0.001131856999078345
236,193.70440194209905,4.812757570148084E-6,0.001136669756648493
237,193.6541989031377,4.7667217044776186E-6,0.0011414364783529707
238,193.60256760794164,4.827108921948037E-6,0.0011462635872749188
239,193.54991589094234,4.866727158195419E-6,0.0011511303144331143
240,193.49649396088958,4.8909906313992005E-6,0.0011560213050645135
241,193.44306711713025,4.807109928912074E-6,0.0011608284149934255
242,193.389446897787,4.815635087215159E-6,0.0011656440500806408
243,193.3365511217412,4.834349513546821E-6,0.0011704783995941876
244,193.2840818524293,4.758526743215621E-6,0.0011752369263374031
245,193.23132001641088,4.766533144507348E-6,0.0011800034594819104
246,193.1779644991928,4.839472738891094E-6,0.0011848429322208016
247,193.1253210117906,4.815892282426473E-6,0.0011896588245032282
248,193.07223918856326,4.866336166376E-6,0.0011945251606696042
249,193.01766192011064,4.917278330431659E-6,0.001199442439000036
250,192.96301072515945,4.898763736561459E-6,0.0012043412027365975
251,192.90762239289828,5.000400903821644E-6,0.0012093416036404192
252,192.85139856791622,4.9964995386182554E-6,0.0012143381031790375
253,192.79550849842403,4.994372329260183E-6,0.0012193324755082977
254,192.7402247529955,4.9780495501959865E-6,0.0012243105250584938
255,192.68489211870437,4.965209377244612E-6,0.0012292757344357385
256,192.62875957962393,4.918430416502285E-6,0.0012341941648522409
257,192.57357765656923,4.966395101720604E-6,0.0012391605599539615
258,192.51935718073162,4.901190265589636E-6,0.001244061750219551
259,192.46471333182768,4.912477915819659E-6,0.0012489742281353708
260,192.40935240633456,4.940882575542616E-6,0.0012539151107109133
261,192.35288111152389,4.930990459151511E-6,0.0012588461011700648
262,192.29626800288395,4.9452364522994534E-6,0.0012637913376223643
263,192.2393870377822,4.985916407079964E-6,0.0012687772540294442
264,192.1826856891022,4.973695844242469E-6,0.0012737509498736866
265,192.1267115437408,4.944768759087075E-6,0.0012786957186327736
266,192.07144401000986,4.915679752844876E-6,0.0012836113983856184
267,192.01424393286953,4.958363067415556E-6,0.001288569761453034
268,191.95621689572093,5.0039684636953E-6,0.0012935737299167292
269,191.89895030851895,4.9233323632494534E-6,0.0012984970622799787
270,191.84110406013005,4.92335999404692E-6,0.0013034204222740257
271,191.78278707485202,4.9428932028187135E-6,0.0013083633154768444
272,191.724975545885,4.93060753341867E-6,0.0013132939230102632
273,191.6653208438983,4.923511357595831E-6,0.001318217434367859
274,191.60658535573947,4.872012332472174E-6,0.0013230894467003312
275,191.54726973167945,4.9253645138039366E-6,0.0013280148112141351
276,191.48887357271363,4.859302227100982E-6,0.0013328741134412362
277,191.42933362011027,4.854537744547903E-6,0.0013377286511857842
278,191.3708439628494,4.839662742891593E-6,0.0013425683139286757
279,191.31155363514094,4.87782159607378E-6,0.0013474461355247496
280,191.25382765197722,4.803189362742841E-6,0.0013522493248874924
281,191.19787051555613,4.740582045483086E-6,0.0013569899069329754
282,191.1423066888131,4.699576925105554E-6,0.001361689483858081
283,191.08677089337374,4.690815210144334E-6,0.0013663802990682252
284,191.03373149556433,4.690576485736009E-6,0.0013710708755539612
285,190.9786861166598,4.758575546037063E-6,0.0013758294510999984
286,190.92412431267832,4.81176103193019E-6,0.0013806412121319285
287,190.8687360329518,4.823085488671178E-6,0.0013854642976205997
288,190.81208132045307,4.834258101389595E-6,0.0013902985557219894
289,190.75472101541894,4.847545615154833E-6,0.0013951461013371443
290,190.69752070040448,4.841733210238238E-6,0.0013999878345473825
291,190.64027911539173,4.798072731756826E-6,0.0014047859072791394
292,190.5852106211053,4.816832268452173E-6,0.0014096027395475916
293,190.5320530316404,4.820861436193449E-6,0.001414423600983785
294,190.47727325828004,4.910110295094349E-6,0.0014193337112788794
295,190.42247707848088,4.917194296122603E-6,0.001424250905575002
296,190.36673960099148,4.935229685788373E-6,0.0014291861352607905
297,190.30862132508622,5.075910888178578E-6,0.001434262046148969
298,190.2502955163023,5.058236540726397E-6,0.0014393202826896952
299,190.19135668761382,5.0539046053592865E-6,0.0014443741872950545
300,190.13252497262482,5.07199438599649E-6,0.001449446181681051
301,190.0750562505156,4.9543412969269675E-6,0.001454400522977978
302,190.01718105611593,4.936320293030196E-6,0.0014593368432710082
303,189.95858938804,4.9092696388575725E-6,0.001464246112909866
304,189.9003510192511,4.873181968907639E-6,0.0014691192948787736
305,189.84188878752738,4.835214333414297E-6,0.0014739545092121878
306,189.78274335474407,4.87675437707037E-6,0.0014788312635892582
307,189.72279492668903,4.900468323333189E-6,0.0014837317319125914
308,189.6619420870439,4.970345924733493E-6,0.0014887020778373249
