#t,ESS,tempDiff,temp
0,200.00000000000065,0.0,0.0
1,199.99977822039517,5.704470552806444E-6,5.704470552806444E-6
2,199.99910859130392,5.75507586956947E-6,1.1459546422375913E-5
3,199.99800042794163,5.721416418747548E-6,1.7180962841123462E-5
4,199.99644927714465,5.817001131847623E-6,2.2997963972971084E-5
5,199.99444544904546,5.84402892775271E-6,2.8841992900723795E-5
6,199.99204453744292,5.8003479664723775E-6,3.4642340867196175E-5
7,199.98926765162997,5.733674699712728E-6,4.03760155669089E-5
8,199.98613390720575,5.6667048824459154E-6,4.6042720449354814E-5
9,199.9826207641376,5.659350910760231E-6,5.170207136011504E-5
10,199.97874258054958,5.666202691822142E-6,5.736827405193719E-5
11,199.97456728876497,5.554598812638376E-6,6.292287286457556E-5
12,199.9701120233811,5.531478633841115E-6,6.845435149841667E-5
13,199.9652539309109,5.564977846447516E-6,7.401932934486419E-5
14,199.96015814732766,5.539905022054235E-6,7.955923436691843E-5
15,199.95462843628025,5.595555355529245E-6,8.515478972244767E-5
16,199.94880819054868,5.565282842735325E-6,9.072007256518299E-5
17,199.9427026299719,5.564333713812539E-6,9.628440627899553E-5
18,199.93623565975008,5.567604385215354E-6,1.0185201066421089E-4
19,199.92954216649534,5.529706810193863E-6,1.0738171747440475E-4
20,199.92255502810357,5.497468987451332E-6,1.1287918646185609E-4
21,199.91516199250688,5.566087084178438E-6,1.1844527354603452E-4
22,199.90737631418548,5.649218080441476E-6,1.24094491626476E-4
23,199.89924052196685,5.7225153454950365E-6,1.2981700697197102E-4
24,199.8907243684061,5.767649099347257E-6,1.3558465607131827E-4
25,199.8816729326533,5.856301025837566E-6,1.4144095709715584E-4
26,199.87218716333516,5.892099608765043E-6,1.473330567059209E-4
27,199.8625063802826,5.8367391508103915E-6,1.5316979585673128E-4
28,199.852431909823,5.876298949058128E-6,1.590460948057894E-4
29,199.84191649305532,5.857532837380192E-6,1.6490362764316958E-4
30,199.83135889111898,5.771212547400775E-6,1.7067484019057036E-4
31,199.8205346078036,5.707442394008657E-6,1.7638228258457902E-4
32,199.80972170816864,5.5997715972075954E-6,1.8198205418178663E-4
33,199.79848292203928,5.635588712993947E-6,1.8761764289478057E-4
34,199.78699571402987,5.56952542877738E-6,1.9318716832355796E-4
35,199.7749741629156,5.575803520050834E-6,1.987629718436088E-4
36,199.76243305022953,5.685144110130833E-6,2.0444811595373962E-4
37,199.74954193430284,5.726722092400386E-6,2.1017483804614E-4
38,199.7358048086817,5.817294648759152E-6,2.1599213269489915E-4
39,199.721383190801,5.927632275118115E-6,2.2191976497001726E-4
40,199.70645433214256,5.910289253256633E-6,2.278300542232739E-4
41,199.69135771085638,5.903263456349959E-6,2.3373331767962387E-4
42,199.6755485773641,5.975646015111692E-6,2.3970896369473555E-4
43,199.65923395841244,5.983530185521601E-6,2.4569249388025716E-4
44,199.64272518255626,5.965742105684896E-6,2.5165823598594203E-4
45,199.6256582112599,5.959024082268846E-6,2.5761726006821086E-4
46,199.60856184980193,5.899435259873646E-6,2.635166953280845E-4
47,199.59076024058692,5.899407923784317E-6,2.6941610325186883E-4
48,199.57288364540358,5.824659925024291E-6,2.752407631768931E-4
49,199.55476216605712,5.779596300402805E-6,2.810203594772959E-4
50,199.53652326388644,5.750252157796816E-6,2.867706116350927E-4
51,199.51755474927808,5.85486310109285E-6,2.9262547473618555E-4
52,199.4984659615606,5.854004552481407E-6,2.9847947928866695E-4
53,199.47871931165918,5.878731531326063E-6,3.0435821081999304E-4
54,199.45858069146706,5.891628067489507E-6,3.1024983888748255E-4
55,199.43868048349486,5.866355769917628E-6,3.161161946574002E-4
56,199.41848133895826,5.932419953660083E-6,3.2204861461106025E-4
57,199.3978435966293,5.978924872085192E-6,3.2802753948314543E-4
58,199.37700150900875,5.9527187977539255E-6,3.339802582808994E-4
59,199.35571058017769,5.921668264721354E-6,3.3990192654562076E-4
60,199.33425650870288,5.860850484862413E-6,3.4576277703048314E-4
61,199.3123645244963,5.830818161541599E-6,3.5159359519202477E-4
62,199.29022272623072,5.75614112996442E-6,3.573497363219892E-4
63,199.26741589095627,5.819801399016586E-6,3.631695377210058E-4
64,199.2443134793066,5.810701296095988E-6,3.689802390171018E-4
65,199.22087488341285,5.783549601126328E-6,3.747637886182281E-4
66,199.19766589620525,5.700213474670055E-6,3.8046400209289813E-4
67,199.17406739387533,5.7267119600068295E-6,3.86190714052905E-4
68,199.14971721874457,5.810697171831458E-6,3.9200141122473645E-4
69,199.1247494404096,5.86189866464708E-6,3.978633098893835E-4
70,199.09884482917283,5.886504477162671E-6,4.0374981436654616E-4
71,199.0725508090657,5.876504423898613E-6,4.096263187904448E-4
72,199.04657945781372,5.826730706562843E-6,4.1545304949700766E-4
73,199.02004921515152,5.8929645573230976E-6,4.2134601405433074E-4
74,198.99353129982615,5.913135558334881E-6,4.272591496126656E-4
75,198.9660905614522,5.938697408809362E-6,4.3319784702147495E-4
76,198.93903176269615,5.865095552592424E-6,4.390629425740674E-4
77,198.91159258903207,5.990451452179081E-6,4.4505339402624647E-4
78,198.8842639513174,5.958596823467753E-6,4.510119908497142E-4
79,198.85742996346644,5.829074549616927E-6,4.568410653993311E-4
80,198.83070393036368,5.795188979270444E-6,4.6263625437860156E-4
81,198.8045826393198,5.6406979235051936E-6,4.6827695230210675E-4
82,198.77835556283702,5.681280511941759E-6,4.739582328140485E-4
83,198.7513594661532,5.7038089640892165E-6,4.796620417781377E-4
84,198.7235916647538,5.718517305428239E-6,4.8538055908356595E-4
85,198.69590509118902,5.676899386587298E-6,4.910574584701533E-4
86,198.66831420075331,5.614600559923904E-6,4.966720590300771E-4
87,198.64052544282117,5.5620904471814584E-6,5.022341494772586E-4
88,198.61247527444823,5.620848712614506E-6,5.078549981898732E-4
89,198.58401735624523,5.657679186573382E-6,5.135126773764465E-4
90,198.55512241709263,5.693283623220756E-6,5.192059609996673E-4
91,198.52595537132856,5.681643833424622E-6,5.24887604833092E-4
92,198.496825545646,5.657125027028827E-6,5.305447298601208E-4
93,198.46727398351607,5.672586411230495E-6,5.362173162713513E-4
94,198.43693708862102,5.654228966754753E-6,5.41871545238106E-4
95,198.40641474075358,5.662979570590842E-6,5.475345248086968E-4
96,198.37490624136672,5.712694174266324E-6,5.532472189829631E-4
97,198.34303815038777,5.710112796866339E-6,5.589573317798295E-4
98,198.3127146704556,5.5968767030715595E-6,5.645542084829011E-4
99,198.2819362455795,5.647468881146008E-6,5.702016773640471E-4
100,198.25106743351577,5.667204224296357E-6,5.758688815883434E-4
101,198.2199890338995,5.66798268952298E-6,5.815368642778664E-4
102,198.1885920984352,5.6899986307588205E-6,5.872268629086252E-4
103,198.1578152441641,5.636489283695326E-6,5.928633521923206E-4
104,198.12635015625682,5.736704152927033E-6,5.986000563452476E-4
105,198.09460485363732,5.779281001177215E-6,6.043793373464248E-4
106,198.0636179997487,5.674286308420138E-6,6.100536236548449E-4
107,198.03252973578364,5.655278230163038E-6,6.157089018850079E-4
108,198.00167591370715,5.651290689039457E-6,6.213601925740474E-4
109,197.97077759582226,5.601066936564184E-6,6.269612595106116E-4
110,197.93922774891428,5.556922073902549E-6,6.325181815845141E-4
111,197.9077339044695,5.493751860320766E-6,6.380119334448348E-4
112,197.87684444059715,5.335121493750509E-6,6.433470549385853E-4
113,197.8453876178133,5.326193279133571E-6,6.486732482177188E-4
114,197.81367248443587,5.40313822103523E-6,6.540763864387541E-4
115,197.78180296981333,5.429000219267462E-6,6.595053866580216E-4
116,197.74942121693581,5.504533513653104E-6,6.650099201716747E-4
117,197.7160269151602,5.496249116489481E-6,6.705061692881642E-4
118,197.68285032754827,5.467657055287839E-6,6.759738263434521E-4
119,197.64884039849912,5.531919689935994E-6,6.815057460333881E-4
120,197.61495288868988,5.54340483843259E-6,6.870491508718207E-4
121,197.58099197849097,5.5632689520970825E-6,6.926124198239178E-4
122,197.54813348445202,5.513534749900586E-6,6.981259545738184E-4
123,197.51618023658202,5.423404909195891E-6,7.035493594830142E-4
124,197.48448442654578,5.395713930827329E-6,7.089450734138416E-4
125,197.451946907328,5.494160181209156E-6,7.144392335950507E-4
126,197.41990727048926,5.499174443142158E-6,7.199384080381929E-4
127,197.38767362270548,5.477891015195291E-6,7.254162990533882E-4
128,197.35527573618006,5.408880229434955E-6,7.308251792828231E-4
129,197.32145394328802,5.463060938651793E-6,7.36288240221475E-4
130,197.28718283487214,5.506204906141417E-6,7.417944451276163E-4
131,197.25185424313887,5.593698988969883E-6,7.473881441165863E-4
132,197.2161039063626,5.604281872667875E-6,7.529924259892541E-4
133,197.1796536941912,5.619420462077433E-6,7.586118464513316E-4
134,197.1417517522996,5.677711909962105E-6,7.642895583612938E-4
135,197.10438806717934,5.705047514576347E-6,7.699946058758701E-4
136,197.06727376221403,5.672234321230815E-6,7.756668401971009E-4
137,197.03002298452483,5.663443787512652E-6,7.813302839846135E-4
138,196.99189002573138,5.730500669412315E-6,7.870607846540258E-4
139,196.95343518248748,5.724215848716588E-6,7.927850005027424E-4
140,196.9147408682237,5.732070582851175E-6,7.985170710855936E-4
141,196.87538913426505,5.695569084135964E-6,8.042126401697295E-4
142,196.83575043304035,5.718248930860226E-6,8.099308891005897E-4
143,196.79515575680287,5.695239842507414E-6,8.156261289430972E-4
144,196.75375881685335,5.780426224628021E-6,8.214065551677252E-4
145,196.7126693201999,5.654258659468861E-6,8.27060813827194E-4
146,196.6713214726459,5.635363553657748E-6,8.326961773808517E-4
147,196.63103073117938,5.508327628670318E-6,8.38204505009522E-4
148,196.59034787139933,5.5880732300068555E-6,8.437925782395289E-4
149,196.54944212958011,5.5923619157052846E-6,8.493849401552342E-4
150,196.50881007809298,5.599256418367661E-6,8.549841965736018E-4
151,196.46759015839484,5.637132566441946E-6,8.606213291400438E-4
152,196.42625500204778,5.686902979816212E-6,8.6630823211986E-4
153,196.38546767671184,5.5705267624149815E-6,8.71878758882275E-4
154,196.3450004756218,5.555957798973435E-6,8.774347166812485E-4
155,196.3044979364914,5.554230702820596E-6,8.829889473840691E-4
156,196.26439904874815,5.597403684321232E-6,8.885863510683903E-4
157,196.22529374661488,5.535624544436911E-6,8.941219756128272E-4
158,196.18598500064792,5.518344686066853E-6,8.99640320298894E-4
159,196.14820820095127,5.468232093226699E-6,9.051085523921207E-4
160,196.10985674852975,5.5349964552054715E-6,9.106435488473261E-4
161,196.07211596019894,5.541239285149366E-6,9.161847881324755E-4
162,196.03322967511784,5.562924249663231E-6,9.217477123821387E-4
163,195.99338499150892,5.547257740504406E-6,9.272949701226432E-4
164,195.95337218832958,5.562966468658932E-6,9.328579365913022E-4
165,195.91236178989126,5.545219928721622E-6,9.384031565200238E-4
166,195.8715302426864,5.540497529238589E-6,9.439436540492624E-4
167,195.82996236141452,5.527955588802966E-6,9.494716096380653E-4
168,195.7881188225228,5.522652334621079E-6,9.549942619726864E-4
169,195.74679410762397,5.4398758605142645E-6,9.604341378332007E-4
170,195.70697206967603,5.4478889441777224E-6,9.658820267773784E-4
171,195.66674531335522,5.365392009012465E-6,9.712474187863909E-4
172,195.62740134519044,5.3245925226077415E-6,9.765720113089986E-4
173,195.58819516653736,5.367672093316772E-6,9.819396834023155E-4
174,195.54944066993153,5.396764660686711E-6,9.873364480630022E-4
175,195.50843326913397,5.459447967096075E-6,9.927958960300983E-4
176,195.46742138234276,5.434962956899819E-6,9.982308589869982E-4
177,195.42754433715209,5.43624512888793E-6,0.001003667104115886
178,195.387904442135,5.43289957128261E-6,0.0010091000036871686
179,195.3476138337054,5.475261464993016E-6,0.0010145752651521617
180,195.30789917700724,5.383734714568285E-6,0.00101995899986673
181,195.2691508684221,5.32882203004358E-6,0.0010252878218967737
182,195.2303434768075,5.404406190169902E-6,0.0010306922280869436
183,195.19215214555476,5.392914340387355E-6,0.001036085142427331
184,195.15267215194098,5.446936120217556E-6,0.0010415320785475484
185,195.11204823653205,5.395779348394536E-6,0.0010469278578959429
186,195.07295208424995,5.344188873064254E-6,0.0010522720467690072
187,195.0340547866144,5.324327485906381E-6,0.0010575963742549136
188,194.99480036449128,5.391560904004117E-6,0.0010629879351589178
189,194.95541528526945,5.473372191228105E-6,0.001068461307350146
190,194.916583258214,5.461566615833677E-6,0.0010739228739659796
191,194.87467886530712,5.654468969236697E-6,0.0010795773429352162
192,194.83394311739576,5.628950913863736E-6,0.0010852062938490799
193,194.791951410605,5.646483525215434E-6,0.0010908527773742954
194,194.74838978941673,5.6622216765948704E-6,0.0010965149990508902
195,194.70385516948676,5.68431653619572E-6,0.0011021993155870859
196,194.66015183793593,5.662901192804434E-6,0.0011078622167798903
197,194.61696529705375,5.608378894793568E-6,0.001113470595674684
198,194.57274934651372,5.668676890126622E-6,0.0011191392725648105
199,194.52845748128703,5.680188008541754E-6,0.0011248194605733522
200,194.48425762624703,5.653076477386411E-6,0.0011304725370507387
201,194.44141475086272,5.60005736474945E-6,0.001136072594415488
202,194.3984557147835,5.5401571232594304E-6,0.0011416127515387474
203,194.3548054862014,5.533540931840295E-6,0.0011471462924705878
204,194.31169611436434,5.551430567207198E-6,0.001152697723037795
205,194.2681525645542,5.583746322967491E-6,0.0011582814693607626
206,194.22497263010825,5.560106135892857E-6,0.0011638415754966554
207,194.1828821232482,5.423327363014712E-6,0.0011692649028596702
208,194.13972795148462,5.3963618435423115E-6,0.0011746612647032125
209,194.0966493013485,5.39807340470832E-6,0.0011800593381079208
210,194.0547164624972,5.332768533935067E-6,0.001185392106641856
211,194.01327717775413,5.368733411658368E-6,0.0011907608400535143
212,193.97270442269908,5.346213405962348E-6,0.0011961070534594767
213,193.93220273806853,5.369484058586617E-6,0.0012014765375180634
214,193.89175169757348,5.335868412364669E-6,0.001206812405930428
215,193.84996952342993,5.358088020614641E-6,0.0012121704939510427
216,193.80863144620696,5.328803046293747E-6,0.0012174992969973364
217,193.76851734560756,5.33945995573764E-6,0.001222838756953074
218,193.72758008654975,5.378930105597775E-6,0.0012282176870586717
219,193.6862768945756,5.340105486882671E-6,0.0012335577925455543
220,193.64372984077258,5.3838938953446024E-6,0.0012389416864408988
221,193.60050115353505,5.43106101758074E-6,0.0012443727474584795
222,193.55827493075472,5.475720020720064E-6,0.0012498484674791997
223,193.51540616947807,5.562511569172707E-6,0.0012554109790483723
224,193.47210800483248,5.620586376067241E-6,0.0012610315654244396
225,193.4295096457128,5.507007695873092E-6,0.0012665385731203127
226,193.38759776944624,5.480074566510881E-6,0.0012720186476868236
227,193.3463538942582,5.41083930454528E-6,0.001277429486991369
228,193.30467516714836,5.4448638157312E-6,0.0012828743508071002
229,193.2630198551923,5.481817944302186E-6,0.0012883561687514024
230,193.22218012929636,5.388279277176779E-6,0.0012937444480285792
231,193.18190935162644,5.348385800763003E-6,0.0012990928338293421
232,193.14215363896201,5.3572345822115766E-6,0.0013044500684115537
233,193.10140427066344,5.376588322892765E-6,0.0013098266567344466
234,193.0584229394628,5.397762731754115E-6,0.0013152244194662007
235,193.01556247671283,5.374478358881333E-6,0.0013205988978250822
236,192.97291995208255,5.334880104070041E-6,0.0013259337779291521
237,192.93236624159843,5.32170452237575E-6,0.0013312554824515279
238,192.89069729686724,5.385056944192379E-6,0.0013366405393957202
239,192.85024464552052,5.357540182809879E-6,0.00134199807957853
240,192.8092903297976,5.399033813730527E-6,0.0013473971133922606
241,192.7671629038187,5.4293957480673835E-6,0.0013528265091403279
242,192.72409519015565,5.467577712791755E-6,0.0013582940868531197
243,192.68166960604634,5.431801483203652E-6,0.0013637258883363232
244,192.63981052320193,5.37384752158609E-6,0.0013690997358579093
245,192.598338547428,5.326986146748571E-6,0.0013744267220046579
246,192.5561751714817,5.353102283707626E-6,0.0013797798242883655
247,192.5138287170446,5.2825197873599955E-6,0.0013850623440757254
248,192.47271325620054,5.211253019536613E-6,0.0013902735970952622
249,192.4302572267108,5.211880214439166E-6,0.0013954854773097012
250,192.38526738393907,5.226866523650084E-6,0.0014007123438333513
251,192.34172946655048,5.144407460987289E-6,0.0014058567512943386
252,192.29701310012308,5.2883022425379245E-6,0.0014111450535368765
253,192.25315112592324,5.3135018864287455E-6,0.0014164585554233052
254,192.20800543603525,5.336231492827034E-6,0.0014217947869161322
255,192.16296741421792,5.306385245592811E-6,0.001427101172161725
256,192.11810830448215,5.3664158300674865E-6,0.0014324675879917926
257,192.07365777525945,5.321626724527981E-6,0.0014377892147163205
258,192.02895633731222,5.306512403694265E-6,0.0014430957271200147
259,191.98425771885465,5.256246587110842E-6,0.0014483519737071256
260,191.94012365807657,5.223770212007401E-6,0.001453575743919133
261,191.8956024784292,5.285256565149731E-6,0.0014588610004842829
262,191.84756275689486,5.296521859416767E-6,0.0014641575223436995
263,191.79823376888982,5.303418645377616E-6,0.0014694609409890771
264,191.75187753474927,5.249507183377094E-6,0.0014747104481724542
265,191.7056175481983,5.135355623671797E-6,0.001479845803796126
266,191.65711005353998,5.202836933027553E-6,0.0014850486407291536
267,191.60850372885994,5.1805522086993395E-6,0.001490229192937853
268,191.55976858138408,5.2092044985433226E-6,0.0014954383974363963
269,191.5108884051018,5.2350155702989825E-6,0.0015006734130066951
270,191.4606615625108,5.216588468400984E-6,0.001505890001475096
271,191.40970210257368,5.2000918386569755E-6,0.001511090093313753
272,191.35874895187297,5.293406847899799E-6,0.0015163835001616528
273,191.30876980262875,5.311138555588943E-6,0.0015216946387172417
274,191.25842196194256,5.338633825659348E-6,0.0015270332725429011
275,191.20953917742534,5.3275518677579094E-6,0.001532360824410659
276,191.1629122219167,5.323343500482786E-6,0.001537684167911142
277,191.1156820553281,5.298909847727023E-6,0.001542983077758869
278,191.0669872279755,5.325926157247014E-6,0.001548309003916116
279,191.01935778635405,5.256847619187925E-6,0.0015535658515353039
280,190.971637609608,5.17534270348891E-6,0.0015587411942387928
281,190.92416538709836,5.160101373532565E-6,0.0015639012956123253
282,190.87572023245477,5.213134288222432E-6,0.0015691144299005478
283,190.82606942331972,5.294175464040059E-6,0.001574408605364588
284,190.7768664409477,5.244642648820486E-6,0.0015796532480134083
285,190.72778818068178,5.243365384296264E-6,0.0015848966133977045
286,190.67895785807178,5.3212966106866765E-6,0.0015902179100083912
287,190.62850696832118,5.392538418252203E-6,0.0015956104484266434
288,190.5766651758116,5.402561476552113E-6,0.0016010130099031955
289,190.52608552110402,5.409556504350037E-6,0.0016064225664075456
290,190.47450932454035,5.457464123445121E-6,0.0016118800305309907
291,190.42527925671692,5.380888815185525E-6,0.0016172609193461761
292,190.374451847409,5.319059307117336E-6,0.0016225799786532935
293,190.32478429281173,5.294441247548199E-6,0.0016278744199008416
294,190.27473847626814,5.290644419422425E-6,0.001633165064320264
295,190.22449902317706,5.242195208400966E-6,0.001638407259528665
296,190.1745409052268,5.170553458143731E-6,0.0016435778129868087
297,190.12605936894974,5.105659020712505E-6,0.0016486834720075214
298,190.07800302459145,5.0351337786668654E-6,0.0016537186057861881
299,190.02822696549086,5.119729898965697E-6,0.0016588383356851539
300,189.97822096652465,5.156899917765575E-6,0.0016639952356029195
301,189.92973143182056,5.164649371750551E-6,0.00166915988497467
302,189.88112152792493,5.1904501730298995E-6,0.0016743503351477
303,189.833135544955,5.20466454979225E-6,0.0016795549996974923
304,189.78657491583726,5.170003995097836E-6,0.00168472500369259
305,189.74093606741224,5.156312372468986E-6,0.001689881316065059
306,189.6946014084709,5.119346931108809E-6,0.0016950006629961678
307,189.6474198387154,5.176078068845817E-6,0.0017001767410650137
