#t,ESS,tempDiff,temp
0,200.00000000000065,0.0,0.0
1,199.99983604223007,1.0019967797315254E-5,1.0019967797315254E-5
2,199.9993355887521,9.941793296926015E-6,1.9961761094241268E-5
3,199.99853346000947,9.693517970202833E-6,2.96552790644441E-5
4,199.99746158773308,9.552610729627484E-6,3.9207889794071586E-5
5,199.99609158764244,9.651135615310934E-6,4.885902540938252E-5
6,199.99446872964754,9.537482234664151E-6,5.839650764404667E-5
7,199.99260874494095,9.587853595833863E-6,6.798436123988053E-5
8,199.99042946912735,9.820157801567934E-6,7.780451904144847E-5
9,199.9880155111089,9.81988180686719E-6,8.762440084831565E-5
10,199.9853017987022,9.83951607592866E-6,9.746391692424432E-5
11,199.98231860735248,9.702381663358894E-6,1.0716629858760322E-4
12,199.97916920851657,9.55530697444227E-6,1.1672160556204549E-4
13,199.9757706517941,9.570384099507495E-6,1.2629198966155299E-4
14,199.97228094855902,9.347621817272798E-6,1.3563961147882578E-4
15,199.96835296234784,9.769768012652196E-6,1.4540937949147797E-4
16,199.9642350934283,9.674063769710227E-6,1.550834432611882E-4
17,199.95985651901634,9.760435560705116E-6,1.6484387882189332E-4
18,199.95512893011437,9.85232828906945E-6,1.7469620711096278E-4
19,199.95021557643776,9.764674124098711E-6,1.844608812350615E-4
20,199.9450471535974,9.729295278251358E-6,1.9419017651331285E-4
21,199.9398119966662,9.56478927386989E-6,2.0375496578718273E-4
22,199.93428442759253,9.575719096189447E-6,2.1333068488337218E-4
23,199.92845763488845,9.692766984096268E-6,2.2302345186746845E-4
24,199.9224807646532,9.752993641323871E-6,2.3277644550879231E-4
25,199.9165046501497,9.668032672396543E-6,2.4244447818118884E-4
26,199.91035410174732,9.942647430399945E-6,2.523871256115888E-4
27,199.90419838533157,9.625012425414552E-6,2.620121380370034E-4
28,199.89789920939447,9.569506232920263E-6,2.715816442699236E-4
29,199.89103360580592,9.783858380753971E-6,2.813655026506776E-4
30,199.8838262310877,9.659625949522775E-6,2.9102512860020035E-4
31,199.8763934016661,9.603378849373789E-6,3.0062850744957416E-4
32,199.86851165541967,9.80180686909386E-6,3.1043031431866804E-4
33,199.86033236240192,9.805478453047428E-6,3.2023579277171545E-4
34,199.85213548168034,9.608497327813965E-6,3.298442900995294E-4
35,199.84351524939396,9.699994202016254E-6,3.3954428430154563E-4
36,199.83458556100624,9.627108320366451E-6,3.491713926219121E-4
37,199.82555155188987,9.675762287768774E-6,3.5884715490968087E-4
38,199.81636819801216,9.390460436045197E-6,3.682376153457261E-4
39,199.80687486673483,9.44533453136787E-6,3.776829498770939E-4
40,199.79679088505213,9.78709805929945E-6,3.8747004793639335E-4
41,199.78669083143018,9.638841316068168E-6,3.971088892524615E-4
42,199.77636189860303,9.545492438013051E-6,4.066543816904746E-4
43,199.76566545137865,9.559426352947104E-6,4.162138080434217E-4
44,199.7546656778554,9.647610942855995E-6,4.258614189862777E-4
45,199.74355424673783,9.44888641332302E-6,4.353103053996007E-4
46,199.7322523722778,9.450940323865784E-6,4.447612457234665E-4
47,199.72071777548945,9.422006214563229E-6,4.541832519380297E-4
48,199.70838683488114,9.656472466148956E-6,4.638397244041787E-4
49,199.69565613719823,9.826680727911659E-6,4.7366640513209034E-4
50,199.68251459308482,9.759929927266199E-6,4.834263350593565E-4
51,199.66922247626007,9.772674442109188E-6,4.931990095014657E-4
52,199.65594005134702,9.691715492340322E-6,5.028907249938061E-4
53,199.64229023946643,9.748056786471278E-6,5.126387817802774E-4
54,199.62878114247204,9.795879258844512E-6,5.224346610391219E-4
55,199.61474080993762,9.952688449757882E-6,5.323873494888797E-4
56,199.60071865179097,9.711501837509117E-6,5.420988513263888E-4
57,199.58611371083768,9.869350927193088E-6,5.519682022535818E-4
58,199.57073413836898,1.0064682854950621E-5,5.620328851085324E-4
59,199.55524574075469,9.905462037136031E-6,5.719383471456685E-4
60,199.53957269784982,9.775277052001794E-6,5.817136241976703E-4
61,199.5239247686151,9.508007710434465E-6,5.912216319081048E-4
62,199.50822905767217,9.58114171508284E-6,6.008027736231876E-4
63,199.4921191764965,9.653012474841156E-6,6.104557860980288E-4
64,199.47583206683385,9.552033602731792E-6,6.200078197007606E-4
65,199.45918781244305,9.464704801797966E-6,6.294725245025585E-4
66,199.44199416192492,9.576201602118206E-6,6.390487261046767E-4
67,199.42488846249344,9.520724861830429E-6,6.485694509665072E-4
68,199.4076096158352,9.462524511957957E-6,6.580319754784652E-4
69,199.3901758813682,9.658470217446606E-6,6.676904456959118E-4
70,199.37260428772345,9.677235724045849E-6,6.773676814199577E-4
71,199.35515170531986,9.516688929056772E-6,6.868843703490145E-4
72,199.3375640467974,9.627049048980758E-6,6.965114193979952E-4
73,199.31945939364186,9.722747707482654E-6,7.062341671054778E-4
74,199.30129575897826,9.596976420990534E-6,7.158311435264684E-4
75,199.2833343131265,9.56683761755067E-6,7.25397981144019E-4
76,199.26506624081463,9.666201006536389E-6,7.350641821505554E-4
77,199.24614042012774,9.653363221307863E-6,7.447175453718632E-4
78,199.22685969502777,9.743417342038583E-6,7.544609627139019E-4
79,199.20774818847138,9.718246234740565E-6,7.641792089486424E-4
80,199.18813719643146,9.72354044718742E-6,7.739027493958298E-4
81,199.16868684018988,9.60995764873447E-6,7.835127070445643E-4
82,199.14934092510052,9.52393710270041E-6,7.930366441472647E-4
83,199.12919987860917,9.501346164220775E-6,8.025379903114855E-4
84,199.10888665827844,9.512155599169793E-6,8.120501459106552E-4
85,199.08826143081976,9.471655660150108E-6,8.215218015708054E-4
86,199.06774399365509,9.45018849703449E-6,8.309719900678399E-4
87,199.04790595866368,9.175656930319487E-6,8.401476469981593E-4
88,199.02813207344155,9.138867495454307E-6,8.492865144936136E-4
89,199.0078299111434,9.342289301589466E-6,8.586288037952031E-4
90,198.98831669569313,9.301067412065941E-6,8.67929871207269E-4
91,198.96892845286678,9.161689841063673E-6,8.770915610483327E-4
92,198.9501326032947,9.0846324988718E-6,8.861761935472044E-4
93,198.93026129369983,9.08489883273674E-6,8.952610923799412E-4
94,198.91051681689146,9.010096781790873E-6,9.042711891617321E-4
95,198.89040908880574,9.128122725659262E-6,9.133993118873913E-4
96,198.87162002464225,9.067262530580547E-6,9.224665744179719E-4
97,198.85261453182835,9.17933485034812E-6,9.3164590926832E-4
98,198.83355274561916,9.170381525387923E-6,9.408162907937079E-4
99,198.81446306609027,9.022300344894011E-6,9.49838591138602E-4
100,198.79548596138778,9.112624104997435E-6,9.589512152435994E-4
101,198.77702848028187,9.09265465506744E-6,9.680438698986668E-4
102,198.7586890639187,9.118950732058164E-6,9.77162820630725E-4
103,198.74029913575836,9.004161070796614E-6,9.861669817015216E-4
104,198.72172098243732,9.19232788618536E-6,9.95359309587707E-4
105,198.7029314065202,9.171797946103257E-6,0.0010045311075338101
106,198.68369224595162,9.153628143955851E-6,0.001013684735677766
107,198.6636802428144,9.233424589792149E-6,0.0010229181602675582
108,198.6429646695711,9.203404374205334E-6,0.0010321215646417635
109,198.62253621757725,9.014576494602654E-6,0.001041136141136366
110,198.60244139530997,8.906172314013069E-6,0.001050042313450379
111,198.5823082303942,8.55727278942078E-6,0.0010585995862397999
112,198.5612946511968,8.63148665165527E-6,0.001067231072891455
113,198.5403227406611,8.643505683718983E-6,0.001075874578575174
114,198.51905205785093,8.638959492299932E-6,0.0010845135380674739
115,198.49827032921476,8.58207282369545E-6,0.0010930956108911693
116,198.47742288087437,8.664656680707902E-6,0.0011017602675718772
117,198.4557579173859,8.746171885173354E-6,0.0011105064394570506
118,198.4346227109187,8.703335961979095E-6,0.0011192097754190297
119,198.4135827131006,8.618284836263646E-6,0.0011278280602552934
120,198.3922955922414,8.706038520762376E-6,0.0011365340987760557
121,198.37017352725513,8.885115641273898E-6,0.0011454192144173295
122,198.3485441276034,8.810020545363403E-6,0.0011542292349626929
123,198.32651655798813,8.850241994368415E-6,0.0011630794769570613
124,198.3042640048604,8.876310877706059E-6,0.0011719557878347674
125,198.28169930293205,8.879945422597171E-6,0.0011808357332573646
126,198.25939214692835,8.842793131548188E-6,0.001189678526388913
127,198.23664863644606,8.754130678438735E-6,0.0011984326570673516
128,198.21423568301918,8.63315361372929E-6,0.0012070658106810809
129,198.19208245889922,8.502493808926237E-6,0.0012155683044900072
130,198.1707670121873,8.389085859589096E-6,0.0012239573903495963
131,198.14973249619499,8.454068479741259E-6,0.0012324114588293375
132,198.12867747219585,8.344370855742955E-6,0.0012407558296850805
133,198.10752349092735,8.489615583153182E-6,0.0012492454452682337
134,198.08532538249003,8.507496063295494E-6,0.0012577529413315292
135,198.06285623855587,8.418617186983195E-6,0.0012661715585185124
136,198.04022143888713,8.360387059830784E-6,0.0012745319455783432
137,198.0163726200034,8.560052331717006E-6,0.0012830919979100602
138,197.99249251949544,8.479216111919153E-6,0.0012915712140219794
139,197.96845952511293,8.56921116697528E-6,0.0013001404251889548
140,197.94391847780156,8.738424982232536E-6,0.0013088788501711872
141,197.91928971104994,8.800077949048517E-6,0.0013176789281202357
142,197.89407403298728,8.999398100587485E-6,0.0013266783262208231
143,197.86959440998226,8.860153298124666E-6,0.0013355384795189478
144,197.84540080628463,8.845153306749127E-6,0.001344383632825697
145,197.82068968221864,8.962347700555557E-6,0.0013533459805262526
146,197.79561921567608,8.900093343902252E-6,0.001362246073870155
147,197.76997933155312,9.042220643755817E-6,0.0013712882945139107
148,197.74417387591947,9.188743009868449E-6,0.0013804770375237792
149,197.71678901128286,9.237925089046206E-6,0.0013897149626128254
150,197.68879047061606,9.333455490260891E-6,0.0013990484181030862
151,197.66143646911806,9.239778550738741E-6,0.001408288196653825
152,197.63317297902734,9.222948318903358E-6,0.0014175111449727283
153,197.60376448318078,9.304500475640208E-6,0.0014268156454483685
154,197.57271792939528,9.531153634722392E-6,0.001436346799083091
155,197.5406770950055,9.80416109504328E-6,0.0014461509601781343
156,197.507847713715,9.833017033984402E-6,0.0014559839772121186
157,197.47517572555714,9.709401565648831E-6,0.0014656933787777675
158,197.44336362848225,9.5525231557603E-6,0.001475245901933528
159,197.41226353465953,9.37121396039497E-6,0.0014846171158939229
160,197.38102995559504,9.334166586257191E-6,0.00149395128248018
161,197.34934236118303,9.422536474483605E-6,0.0015033738189546635
162,197.3172003621341,9.374147483239673E-6,0.0015127479664379033
163,197.284915681901,9.397721101663788E-6,0.001522145687539567
164,197.25149520320574,9.646678965603398E-6,0.0015317923665051705
165,197.21734856441856,9.604749467830143E-6,0.0015413971159730006
166,197.18397423238682,9.47590244228555E-6,0.0015508730184152861
167,197.14996851488408,9.53571255465317E-6,0.0015604087309699394
168,197.1149143189213,9.574584543120173E-6,0.0015699833155130595
169,197.07980609935308,9.59921239404135E-6,0.0015795825279071008
170,197.04458967840006,9.7983725339163E-6,0.0015893809004410172
171,197.01035216724404,9.677553446145836E-6,0.001599058453887163
172,196.9749568911182,9.610377937382686E-6,0.0016086688318245458
173,196.94044896530767,9.404610516334953E-6,0.0016180734423408808
174,196.90573427151568,9.328638673586805E-6,0.0016274020810144675
175,196.87146123299482,9.143303787077464E-6,0.001636545384801545
176,196.83662106802984,9.177370932512401E-6,0.0016457227557340572
177,196.80156889534447,9.060062942053924E-6,0.001654782818676111
178,196.76735728600445,9.011250009631308E-6,0.0016637940686857423
179,196.73368635318113,8.84726398628932E-6,0.0016726413326720317
180,196.69899373540892,8.89262396274264E-6,0.0016815339566347745
181,196.66437796789364,9.03752858976876E-6,0.0016905714852245431
182,196.6300883898771,8.917536903472954E-6,0.001699489022128016
183,196.59593529454517,8.87297444768745E-6,0.0017083619965757035
184,196.5617004145944,8.88613951259567E-6,0.0017172481360882993
185,196.5267563528757,8.947389222417462E-6,0.0017261955253107168
186,196.4913902666439,8.850670402052155E-6,0.001735046195712769
187,196.45598172369228,9.104999297421705E-6,0.0017441511950101907
188,196.42022673101633,9.042396896105824E-6,0.0017531935919062964
189,196.38415116047744,9.038296186059769E-6,0.0017622318880923561
190,196.34897573787023,9.039021549178014E-6,0.001771270909641534
191,196.31496004984191,8.982103048240166E-6,0.0017802530126897742
192,196.2807311749291,8.93982215197518E-6,0.0017891928348417493
193,196.24708931914486,8.894446777030055E-6,0.0017980872816187794
194,196.21309037727596,8.91315536922231E-6,0.0018070004369880018
195,196.17788665413565,9.00703943870329E-6,0.001816007476426705
196,196.143731637809,9.090235024811722E-6,0.0018250977114515168
197,196.108980069695,9.094210995895426E-6,0.0018341919224474123
198,196.07540406398584,9.00752443049093E-6,0.0018431994468779032
199,196.04178904986586,9.052030149439793E-6,0.001852251477027343
200,196.0074780257565,9.164634549628561E-6,0.0018614161115769717
201,195.97271088128798,9.238668274824144E-6,0.0018706547798517958
202,195.93729550181493,9.25046807393373E-6,0.0018799052479257295
203,195.90125478819903,9.259695624567453E-6,0.001889164943550297
204,195.86518131932348,9.194215842495805E-6,0.0018983591593927927
205,195.82864204232476,9.333247076268753E-6,0.0019076924064690614
206,195.79411275849753,9.152808203073947E-6,0.0019168452146721355
207,195.7602850964012,9.273903392867978E-6,0.0019261191180650035
208,195.72522993133933,9.51863715201758E-6,0.0019356377552170211
209,195.689261101967,9.691982497488744E-6,0.00194532973771451
210,195.6531140399615,9.721276511969345E-6,0.001955051014226479
211,195.61692648783875,9.720407421961252E-6,0.0019647714216484403
212,195.58020322658052,9.84597653304107E-6,0.0019746173981814814
213,195.54279041588566,9.90017698251068E-6,0.0019845175751639923
214,195.50470460531218,9.812972608475937E-6,0.0019943305477724683
215,195.46686525479183,9.92991924122677E-6,0.002004260467013695
216,195.42823431402397,9.966892408936584E-6,0.0020142273594226314
217,195.3904381751198,9.962792793252568E-6,0.002024190152215884
218,195.3523002104668,1.0043638318071204E-5,0.002034233790533955
219,195.31332437307313,1.005992060501901E-5,0.002044293711138974
220,195.27505119120136,1.0062366986202699E-5,0.0020543560781251767
221,195.2369456523777,1.018321225247595E-5,0.0020645392903776527
222,195.19884014934047,9.957351206832356E-6,0.002074496641584485
223,195.1612951707914,9.851328723468594E-6,0.0020843479703079536
224,195.1246108840763,9.728194962694366E-6,0.002094076165270648
225,195.08723026396632,9.58736705135748E-6,0.0021036635323220055
226,195.04983957125674,9.507843770590436E-6,0.002113171376092596
227,195.01242436835307,9.461372490618269E-6,0.0021226327485832142
228,194.97362988485406,9.509567370137996E-6,0.002132142315953352
229,194.93509075639923,9.276179802077167E-6,0.0021414184957554293
230,194.89557803818118,9.298282216769773E-6,0.0021507167779721992
231,194.8569593164185,9.295980529154368E-6,0.0021600127585013535
232,194.81928878193528,9.201216704565861E-6,0.002169213975205919
233,194.78046826881103,9.356606085803132E-6,0.002178570581291722
234,194.74237026924808,9.191615771233901E-6,0.002187762197062956
235,194.70448094357775,9.116506575565352E-6,0.0021968787036385213
236,194.66839465626853,9.0129178205873E-6,0.0022058916214591088
237,194.63187672911292,8.919768582446432E-6,0.002214811390041555
238,194.59801082516282,8.872230524630886E-6,0.002223683620566186
239,194.56449963506563,8.925770579788482E-6,0.0022326093911459745
240,194.5291134840905,9.074186558609264E-6,0.0022416835777045838
241,194.49378842998328,9.046529179749876E-6,0.0022507301068843337
242,194.45810080504495,9.158202219018846E-6,0.0022598883091033526
243,194.4222156470193,9.249784545489081E-6,0.0022691380936488417
244,194.3866655055303,9.298941611405572E-6,0.0022784370352602473
245,194.35237345908237,9.252152273676179E-6,0.0022876891875339236
246,194.31867032996837,9.289205431411686E-6,0.0022969783929653355
247,194.2843846358268,9.385030153757418E-6,0.002306363423119093
248,194.25075511044372,9.25919999557542E-6,0.002315622623114668
249,194.21809935931913,9.232438353909848E-6,0.002324855061468578
250,194.18425257589598,9.265814725886892E-6,0.002334120876194465
251,194.15089136469086,9.085175978320844E-6,0.0023432060521727856
252,194.11805081803718,8.957828251209646E-6,0.0023521638804239954
253,194.0861037637526,8.837852412966864E-6,0.0023610017328369623
254,194.05446015370185,8.793581410125152E-6,0.0023697953142470876
255,194.0219991706734,8.824959220739153E-6,0.0023786202734678266
256,193.98978447339974,8.82615865284382E-6,0.0023874464321206705
257,193.95751869442626,8.833969563451333E-6,0.002396280401684122
258,193.9256723646814,8.630896671300131E-6,0.002404911298355422
259,193.893483204976,8.741613462469217E-6,0.0024136529118178912
260,193.86043536607704,8.737905171144976E-6,0.0024223908169890363
261,193.8264954236666,8.815084851963812E-6,0.002431205901841
262,193.79291931165474,8.800207774486044E-6,0.002440006109615486
263,193.75967444274386,8.80031325653913E-6,0.002448806422872025
264,193.72587147204732,8.828134768634704E-6,0.00245763455764066
265,193.69239354925844,8.910973514159291E-6,0.0024665455311548195
266,193.6592047334984,8.796193396833714E-6,0.0024753417245516533
267,193.62405138465505,8.941408018820527E-6,0.002484283132570474
268,193.58881312855334,9.015702693653701E-6,0.0024932988352641275
269,193.55227142740873,9.124959834958951E-6,0.0025024237950990865
270,193.51546945791728,9.02834143150788E-6,0.0025114521365305945
271,193.4786971156996,8.974777792940374E-6,0.002520426914323535
272,193.44090204183408,8.97414095692684E-6,0.0025294010552804618
273,193.4026465512907,9.022616811837842E-6,0.0025384236720922995
274,193.36503428378182,8.976553468099273E-6,0.002547400225560399
275,193.3279146425974,8.96418640602232E-6,0.0025563644119664213
276,193.28971152073012,9.125488954469268E-6,0.0025654899009208906
277,193.25047315378924,9.323695883883571E-6,0.002574813596804774
278,193.21234541319188,9.044971849076966E-6,0.002583858568653851
279,193.1744864974675,8.979563251043386E-6,0.0025928381319048946
280,193.13714736273994,8.783107302801393E-6,0.002601621239207696
281,193.10015745361787,8.754640520431375E-6,0.0026103758797281274
282,193.06409327237571,8.665022548004485E-6,0.002619040902276132
283,193.02805652748015,8.709003504090082E-6,0.002627749905780222
284,192.9917605573699,8.641839357508388E-6,0.0026363917451377302
285,192.95440727221563,8.89000098985205E-6,0.0026452817461275822
286,192.91668003942917,8.918172552648792E-6,0.002654199918680231
287,192.87946144162026,8.816137571552704E-6,0.002663016056251784
288,192.8411155766775,8.984778429238975E-6,0.002672000834681023
289,192.80212383984386,9.057927754701119E-6,0.002681058762435724
290,192.76390096970985,9.009290543678175E-6,0.002690068052979402
291,192.72519525012294,9.090321170410111E-6,0.002699158374149812
292,192.68660632432483,9.361260419956154E-6,0.002708519634569768
293,192.64665796518747,9.350566756818557E-6,0.0027178702013265867
294,192.6085758545637,9.245310695574053E-6,0.002727115512022161
295,192.5721775205291,9.125314233538963E-6,0.0027362408262556997
296,192.53711191291666,8.907163983201829E-6,0.0027451479902389016
297,192.5022426629087,8.978633400768041E-6,0.00275412662363967
298,192.4676662113512,8.944388178201572E-6,0.0027630710118178715
299,192.43187195974633,8.828363127612743E-6,0.0027718993749454844
300,192.3958708371013,9.234313491281833E-6,0.0027811336884367662
301,192.36141410390644,9.154528718313638E-6,0.0027902882171550797
302,192.3286378299677,9.043724055829868E-6,0.0027993319412109095
303,192.2971320762369,9.050952560162054E-6,0.0028083828937710714
304,192.26437465540673,8.994332261317495E-6,0.002817377226032389
305,192.23075468992823,8.971071567609968E-6,0.0028263482975999987
306,192.19702331388228,8.98535394900427E-6,0.002835333651549003
307,192.16520018960966,8.852297056788004E-6,0.002844185948605791
308,192.1323765157916,8.831284438680253E-6,0.0028530172330444715
