#t,ESS,tempDiff,temp
0,200.00000000000065,0.0,0.0
1,199.99969726566476,6.472208761255593E-6,6.472208761255593E-6
2,199.99878002936475,6.506671451118774E-6,1.2978880212374366E-5
3,199.99724639790637,6.502839594412357E-6,1.9481719806786724E-5
4,199.99509320776772,6.5382096713170465E-6,2.601992947810377E-5
5,199.9923369528617,6.527779635568206E-6,3.2547709113671975E-5
6,199.98886492482538,6.626896921092554E-6,3.917460603476453E-5
7,199.98481994086632,6.569563819034621E-6,4.574416985379915E-5
8,199.98017262045826,6.54900318430543E-6,5.229317303810458E-5
9,199.9749794552593,6.513891481949551E-6,5.880706452005413E-5
10,199.96922474451384,6.4990998831923E-6,6.530616440324643E-5
11,199.96297048364318,6.45877338607919E-6,7.176493778932562E-5
12,199.95618840033544,6.418221702583898E-6,7.818315949190951E-5
13,199.94883804441304,6.367610637142997E-6,8.455077012905251E-5
14,199.94091996237518,6.394377939476735E-6,9.094514806852924E-5
15,199.93270913064904,6.172564963012092E-6,9.711771303154133E-5
16,199.9240624206609,6.1581086190410375E-6,1.0327582165058237E-4
17,199.91498795602678,6.116131491262948E-6,1.0939195314184533E-4
18,199.90533064453066,6.130362423206372E-6,1.1552231556505169E-4
19,199.89538594360477,6.057456423305051E-6,1.2157977198835674E-4
20,199.88499922394053,6.012468272447795E-6,1.2759224026080455E-4
21,199.8741578431247,6.009490138036123E-6,1.3360173039884068E-4
22,199.86300277360655,5.9797802646393094E-6,1.3958151066347999E-4
23,199.8512919072712,5.99003416848587E-6,1.4557154483196586E-4
24,199.83949685533582,5.901382428947172E-6,1.5147292726091303E-4
25,199.82720305808687,5.899632931230017E-6,1.5737256019214305E-4
26,199.8143950038839,5.923032672168552E-6,1.632955928643116E-4
27,199.8012302052158,5.883558002247508E-6,1.6917915086655911E-4
28,199.78772690859086,5.8790952604705144E-6,1.7505824612702964E-4
29,199.77382446014127,5.913469111184963E-6,1.809717152382146E-4
30,199.7594245757001,5.951916051325856E-6,1.8692363128954044E-4
31,199.74468121443837,5.9549456444649715E-6,1.928785769340054E-4
32,199.7298102796543,5.867355377488475E-6,1.9874593231149388E-4
33,199.71431519294293,5.907296093755673E-6,2.0465322840524956E-4
34,199.69844060691125,5.889790016478079E-6,2.1054301842172762E-4
35,199.68208861989984,5.913645339604617E-6,2.1645666376133224E-4
36,199.66558615937092,5.834994647146309E-6,2.2229165840847854E-4
37,199.64839679233742,5.883438891486522E-6,2.2817509729996507E-4
38,199.63085553986764,5.860661945082255E-6,2.3403575924504732E-4
39,199.61305749634826,5.8218002632637615E-6,2.3985755950831108E-4
40,199.59493770175877,5.7832023019966805E-6,2.4564076181030775E-4
41,199.57630687267084,5.813343960317112E-6,2.5145410577062487E-4
42,199.55721176480662,5.920797781979481E-6,2.5737490355260437E-4
43,199.53753996754963,5.981831002517734E-6,2.633567345551221E-4
44,199.51760135256194,6.016313653560664E-6,2.6937304820868276E-4
45,199.49736585637612,6.069434972255814E-6,2.7544248318093855E-4
46,199.47684732581902,6.044515666630113E-6,2.814869988475687E-4
47,199.45636769956351,6.013020133867572E-6,2.8750001898143626E-4
48,199.43533258106763,6.046577320935165E-6,2.935465963023714E-4
49,199.41415780393118,6.063537473586076E-6,2.996101337759575E-4
50,199.39250856041517,6.0045146558234585E-6,3.05614648431781E-4
51,199.37040334160216,5.9670009478852595E-6,3.1158164937966626E-4
52,199.3481115640969,5.946766712774864E-6,3.1752841609244113E-4
53,199.3254462580273,5.978825119765093E-6,3.2350724121220625E-4
54,199.30288299023516,5.897827372880964E-6,3.294050685850872E-4
55,199.27989001415713,5.847079954306658E-6,3.3525214853939386E-4
56,199.25662217183225,5.844425184003335E-6,3.410965737233972E-4
57,199.23289294643968,5.84461645415798E-6,3.4694119017755515E-4
58,199.20895784644526,5.828912295974631E-6,3.527701024735298E-4
59,199.18508610778716,5.769047505530295E-6,3.585391499790601E-4
60,199.16139627190032,5.664470542020475E-6,3.642036205210806E-4
61,199.1379088191378,5.625620481020817E-6,3.698292410021014E-4
62,199.11388190326807,5.697885001106124E-6,3.7552712600320755E-4
63,199.09004357636428,5.622769814767589E-6,3.8114989581797514E-4
64,199.0657203397835,5.614556540600297E-6,3.8676445235857546E-4
65,199.04144666039002,5.59332819750668E-6,3.9235778055608214E-4
66,199.0175266048955,5.500753995059671E-6,3.978585345511418E-4
67,198.99331926828017,5.48338691928832E-6,4.033419214704301E-4
68,198.96837950577495,5.545435195294863E-6,4.08887356665725E-4
69,198.94308123072545,5.542863655909917E-6,4.144302203216349E-4
70,198.91748128848218,5.584589875170828E-6,4.200148101968057E-4
71,198.89131895977357,5.566078626822256E-6,4.25580888823628E-4
72,198.86433504443843,5.64451516394873E-6,4.312254039875767E-4
73,198.8367883352621,5.654469561624171E-6,4.368798735492009E-4
74,198.80834301944222,5.707422296475597E-6,4.425872958456765E-4
75,198.77934717376962,5.714400593908948E-6,4.4830169643958543E-4
76,198.75018913957774,5.702734858101717E-6,4.5400443129768717E-4
77,198.72049371054212,5.714673202103864E-6,4.59719104499791E-4
78,198.6913305100584,5.660058927984221E-6,4.6537916342777525E-4
79,198.66216124735877,5.636284699503161E-6,4.710154481272784E-4
80,198.63282399869414,5.662217766131324E-6,4.7667766589340975E-4
81,198.60273522921563,5.772290156934089E-6,4.8244995605034385E-4
82,198.57248061135104,5.755755619951992E-6,4.8820571167029585E-4
83,198.5423278626513,5.72258043207781E-6,4.939282921023737E-4
84,198.51175452754967,5.746664258249621E-6,4.996749563606233E-4
85,198.48091502913283,5.7439661411661365E-6,5.054189225017894E-4
86,198.449499880113,5.764959142992779E-6,5.111838816447822E-4
87,198.41787416191818,5.660491072305848E-6,5.16844372717088E-4
88,198.38628226672148,5.574897407526316E-6,5.224192701246143E-4
89,198.35416901177624,5.5576272002932135E-6,5.279768973249075E-4
90,198.32167726697702,5.552100941475307E-6,5.335289982663828E-4
91,198.28877879431184,5.512514312702615E-6,5.390415125790854E-4
92,198.25548069710644,5.469050034106754E-6,5.445105626131921E-4
93,198.2223225037992,5.501465523386295E-6,5.500120281365785E-4
94,198.18837841940126,5.562012646095386E-6,5.555740407826739E-4
95,198.15337916479606,5.551087077712902E-6,5.611251278603868E-4
96,198.11758374625057,5.55881737880168E-6,5.666839452391885E-4
97,198.08157093907556,5.53365126917562E-6,5.72217596508364E-4
98,198.0449188998465,5.623914635415357E-6,5.778415111437794E-4
99,198.00836910972149,5.5954113840901E-6,5.834369225278695E-4
100,197.97144548294625,5.623175512992273E-6,5.890600980408618E-4
101,197.9345190057633,5.575225420608641E-6,5.946353234614704E-4
102,197.89721399185532,5.611378861987063E-6,6.002467023234574E-4
103,197.86017373745875,5.584118214392436E-6,6.058308205378499E-4
104,197.8232721892927,5.532496230385069E-6,6.11363316768235E-4
105,197.78548644637084,5.558200340326909E-6,6.169215171085619E-4
106,197.74711277433178,5.58295784428698E-6,6.225044749528489E-4
107,197.70870622390294,5.5502815551405195E-6,6.280547565079895E-4
108,197.66998596872594,5.549962826353205E-6,6.336047193343427E-4
109,197.63009636677828,5.660419011398454E-6,6.392651383457412E-4
110,197.58979421762743,5.675076006548764E-6,6.449402143522899E-4
111,197.5497886141296,5.658871390358799E-6,6.505990857426487E-4
112,197.50914366096924,5.6507943745075035E-6,6.562498801171563E-4
113,197.46761032166663,5.66630733076512E-6,6.619161874479214E-4
114,197.4257234048138,5.660251177747556E-6,6.675764386256689E-4
115,197.38340776145262,5.672682990878373E-6,6.732491216165472E-4
116,197.3402152136925,5.715358688888024E-6,6.789644803054353E-4
117,197.2966225575537,5.691063093829711E-6,6.84655543399265E-4
118,197.2525021663614,5.626438010836351E-6,6.902819814101014E-4
119,197.20773027128328,5.6403498459551824E-6,6.959223312560565E-4
120,197.16186530726736,5.65315636836179E-6,7.015754876244183E-4
121,197.11512522860926,5.632202443337407E-6,7.072076900677557E-4
122,197.06820647335405,5.6473675973296275E-6,7.128550576650854E-4
123,197.0208378649343,5.670905185237285E-6,7.185259628503226E-4
124,196.972632310135,5.665866795924846E-6,7.241918296462474E-4
125,196.92348268140424,5.7157785850239025E-6,7.299076082312714E-4
126,196.87344812059942,5.761179316832633E-6,7.35668787548104E-4
127,196.82353580331517,5.750114733724876E-6,7.414189022818289E-4
128,196.7729575803414,5.836070439622415E-6,7.472549727214513E-4
129,196.72122216188347,5.91281700502218E-6,7.531677897264735E-4
130,196.66842923487215,5.899853902729696E-6,7.590676436292032E-4
131,196.61565264741174,5.8648926534717015E-6,7.649325362826749E-4
132,196.56207941335754,5.871053836015239E-6,7.708035901186902E-4
133,196.50702512979694,5.871757394237024E-6,7.766753475129272E-4
134,196.45095863890432,5.865947899078573E-6,7.825412954120057E-4
135,196.39498618364746,5.82182499686969E-6,7.883631204088754E-4
136,196.34019285681677,5.720007379022424E-6,7.940831277878978E-4
137,196.28406825802918,5.777966162190993E-6,7.998610939500888E-4
138,196.22866494490148,5.766111737962757E-6,8.056272056880516E-4
139,196.1733341968237,5.79992101676287E-6,8.114271267048145E-4
140,196.11844935262093,5.790314323991534E-6,8.17217441028806E-4
141,196.06347132762608,5.83107518340353E-6,8.230485162122095E-4
142,196.00972405177663,5.817105375890137E-6,8.288656215880997E-4
143,195.95519650292132,5.819303161640754E-6,8.346849247497405E-4
144,195.900121497508,5.7847676339814095E-6,8.404696923837219E-4
145,195.84494180637267,5.778529898392208E-6,8.462482222821141E-4
146,195.78875746792028,5.790447924159644E-6,8.520386702062738E-4
147,195.73272697369276,5.7255691184275135E-6,8.577642393247013E-4
148,195.67642810995378,5.7251701705979915E-6,8.634894094952994E-4
149,195.6201719913459,5.618473244409629E-6,8.691078827397091E-4
150,195.56456713567945,5.559007502247074E-6,8.746668902419562E-4
151,195.50857974986164,5.540960406979753E-6,8.80207850648936E-4
152,195.45137380637303,5.578953897607735E-6,8.857868045465437E-4
153,195.39420018496088,5.569935427320052E-6,8.913567399738638E-4
154,195.33597732270007,5.657271637135674E-6,8.970140116109995E-4
155,195.27577775783683,5.733370237963586E-6,9.027473818489631E-4
156,195.21498069924493,5.685464743423321E-6,9.084328465923864E-4
157,195.15373578504378,5.654057782472655E-6,9.14086904374859E-4
158,195.09151313553068,5.692683104654421E-6,9.197795874795134E-4
159,195.02877917568247,5.68163958646311E-6,9.254612270659765E-4
160,194.96444682149868,5.716535700438494E-6,9.31177762766415E-4
161,194.89935212442725,5.724977877512088E-6,9.36902740643927E-4
162,194.8341957302863,5.712304553423047E-6,9.4261504519735E-4
163,194.7687921349093,5.65876696278688E-6,9.482738121601369E-4
164,194.70255827614972,5.732479289624033E-6,9.540062914497609E-4
165,194.6353573546128,5.751092269267665E-6,9.597573837190285E-4
166,194.56741763761363,5.772594973720217E-6,9.655299786927487E-4
167,194.49893138373938,5.7561133295489775E-6,9.712860920222977E-4
168,194.4319250927183,5.667160079466306E-6,9.76953252101764E-4
169,194.36555009179926,5.61694702017307E-6,9.825701991219371E-4
170,194.29940153903746,5.597855500448056E-6,9.881680546223852E-4
171,194.23451117147826,5.4883287453244534E-6,9.936563833677096E-4
172,194.16943114597714,5.436954751344295E-6,9.99093338119054E-4
173,194.1033975413054,5.434477277153797E-6,0.0010045278153962079
174,194.03556157085865,5.508806240759059E-6,0.001010036621636967
175,193.9674410203227,5.4971447603574505E-6,0.0010155337663973244
176,193.89968117622584,5.491955909475125E-6,0.0010210257223067995
177,193.83235586954294,5.4014398889696566E-6,0.001026427162195769
178,193.7650478001553,5.360385123152733E-6,0.001031787547318922
179,193.697699963503,5.292559468109579E-6,0.0010370801067870314
180,193.62921523751808,5.354421946398279E-6,0.0010424345287334297
181,193.56037725614013,5.3385529557270665E-6,0.0010477730816891568
182,193.49222310499917,5.296447289390014E-6,0.001053069528978547
183,193.4240731817563,5.3158481788184245E-6,0.0010583853771573655
184,193.3562821231779,5.3428450868894085E-6,0.0010637282222442548
185,193.29036352213313,5.356227301975228E-6,0.00106908444954623
186,193.22403247984235,5.340143562732648E-6,0.0010744245931089626
187,193.15761381826763,5.34786722649155E-6,0.0010797724603354541
188,193.08981674319392,5.402480602584176E-6,0.0010851749409380384
189,193.02138367527743,5.351827038343374E-6,0.0010905267679763818
190,192.95341178573364,5.393732516964479E-6,0.0010959205004933462
191,192.88502941798774,5.386964932318212E-6,0.0011013074654256645
192,192.81815183262339,5.360234110494652E-6,0.0011066676995361592
193,192.75126059009312,5.285418392350744E-6,0.00111195311792851
194,192.68487976850395,5.368832543119113E-6,0.001117321950471629
195,192.61746980194454,5.348454563534939E-6,0.001122670405035164
196,192.54936838824668,5.398467301687596E-6,0.0011280688723368515
197,192.4806528381628,5.372867401049769E-6,0.0011334417397379014
198,192.4123380671568,5.340652046344148E-6,0.0011387823917842455
199,192.3446274058005,5.308110878501009E-6,0.0011440905026627464
200,192.27763094656635,5.276175209339067E-6,0.0011493666778720855
201,192.2095497825104,5.2512281246707634E-6,0.0011546179059967563
202,192.14200384935214,5.2860633562942785E-6,0.0011599039693530506
203,192.0738539613089,5.328018941159694E-6,0.0011652319882942102
204,192.00506213278845,5.329059342079066E-6,0.0011705610476362893
205,191.9356562384674,5.3215936849908434E-6,0.0011758826413212802
206,191.86762655851007,5.308796118669203E-6,0.0011811914374399493
207,191.79986558319203,5.358947879129176E-6,0.0011865503853190785
208,191.7319389177031,5.341398667717171E-6,0.0011918917839867957
209,191.66335697337024,5.381990278550244E-6,0.0011972737742653458
210,191.59586202990783,5.364354805737968E-6,0.001202638129071084
211,191.5277693984836,5.41337218219872E-6,0.0012080515012532827
212,191.4592990522767,5.408956717625456E-6,0.0012134604579709081
213,191.38989980384528,5.453356874963427E-6,0.0012189138148458716
214,191.32081938978317,5.422754668320386E-6,0.001224336569514192
215,191.25267332500712,5.3250114578794356E-6,0.0012296615809720714
216,191.18564420629573,5.3296562841394845E-6,0.001234991237256211
217,191.1190360844846,5.2937854552279725E-6,0.0012402850227114389
218,191.0524147360698,5.326280354599586E-6,0.0012456113030660384
219,190.98635551027832,5.30122107451556E-6,0.001250912524140554
220,190.9204052236033,5.3435125889368685E-6,0.0012562560367294908
221,190.85224661660274,5.422043310208845E-6,0.0012616780800396997
222,190.78316471747237,5.41613355259649E-6,0.0012670942135922963
223,190.71401656440548,5.443958573639145E-6,0.0012725381721659355
224,190.64485919905349,5.400530833020054E-6,0.0012779387029989557
225,190.5758473790521,5.405811016783329E-6,0.0012833445140157389
226,190.50547262235114,5.467554232337053E-6,0.0012888120682480759
227,190.4336707322262,5.483263130914672E-6,0.0012942953313789906
228,190.36354410383987,5.533597345324205E-6,0.001299828928724315
229,190.29334151364668,5.4696518516037366E-6,0.0013052985805759186
230,190.22462518833743,5.429958304219812E-6,0.0013107285388801384
231,190.1562328717948,5.376904238577045E-6,0.0013161054431187155
232,190.08927182234416,5.29644522304899E-6,0.0013214018883417646
233,190.02292051614563,5.253295698630539E-6,0.001326655184040395
234,189.9566422934398,5.219542459645929E-6,0.001331874726500041
235,189.89041040852106,5.17166882056885E-6,0.0013370463953206097
236,189.82494744999855,5.1608493851890574E-6,0.0013422072447057988
237,189.76022640382408,5.1547861530259576E-6,0.0013473620308588248
238,189.69526319234788,5.168641356674962E-6,0.0013525306722154996
239,189.63056191632478,5.1226346776658155E-6,0.0013576533068931655
240,189.56639717303483,5.091414041592834E-6,0.0013627447209347584
241,189.50099449260244,5.1513591696100915E-6,0.0013678960801043686
242,189.43501426919576,5.17078321026814E-6,0.0013730668633146368
243,189.3675284487231,5.222797407248614E-6,0.0013782896607218854
244,189.3010187187282,5.208492637608794E-6,0.001383498153359494
245,189.23490208364234,5.2401577369576125E-6,0.0013887383110964518
246,189.16851888598805,5.206709614302514E-6,0.0013939450207107542
247,189.10164350362447,5.212281170219904E-6,0.001399157301880974
248,189.03391122064755,5.20872827357154E-6,0.0014043660301545455
249,188.96701344182205,5.159900265454779E-6,0.0014095259304200004
250,188.89891717776925,5.155432894364986E-6,0.0014146813633143655
251,188.83089367547996,5.192629391589908E-6,0.0014198739927059553
252,188.762187584062,5.237769092250886E-6,0.0014251117617982063
253,188.6909947065392,5.2758221670618554E-6,0.001430387583965268
254,188.61939420022566,5.317719268745677E-6,0.0014357053032340136
255,188.54831007715345,5.293853636532656E-6,0.0014409991568705464
256,188.47653207418185,5.3205064379998196E-6,0.0014463196633085463
257,188.40528889009374,5.317998279008877E-6,0.0014516376615875551
258,188.33531777108863,5.313724184909449E-6,0.0014569513857724645
259,188.26566840401895,5.290192734591649E-6,0.001462241578507056
260,188.19640713750775,5.229777894348303E-6,0.0014674713564014044
261,188.12803847849705,5.240454162155572E-6,0.0014727118105635599
262,188.05939865250932,5.264505170915828E-6,0.0014779763157344757
263,187.99210976837009,5.2093477821603875E-6,0.001483185663516636
264,187.92333069753337,5.216137383089376E-6,0.0014884018008997255
265,187.8544782234172,5.23854295281835E-6,0.001493640343852544
266,187.7856681719686,5.184885017822182E-6,0.001498825228870366
267,187.7163974657365,5.212243539793983E-6,0.00150403747241016
268,187.64596677657252,5.24604849460027E-6,0.0015092835209047602
269,187.57484546949559,5.300816417077668E-6,0.0015145843373218378
270,187.50534481528337,5.294069193146081E-6,0.001519878406514984
271,187.43556408515676,5.2665781179513135E-6,0.0015251449846329353
272,187.3653865718693,5.26570087788453E-6,0.0015304106855108198
273,187.2941611643903,5.278689425506215E-6,0.0015356893749363261
274,187.22412382305657,5.272050134828207E-6,0.0015409614250711543
275,187.15349792268512,5.294806496045431E-6,0.0015462562315671996
276,187.08090246508212,5.303053803772572E-6,0.0015515592853709722
277,187.00767258442102,5.2643265644611255E-6,0.0015568236119354332
278,186.9339829015329,5.31308442702907E-6,0.0015621366963624623
279,186.85888258653983,5.333990791065889E-6,0.0015674706871535281
280,186.78465189014082,5.313852336213365E-6,0.0015727845394897415
281,186.7101612429362,5.307588834693107E-6,0.0015780921283244348
282,186.63591514715893,5.2770608208811095E-6,0.0015833691891453158
283,186.56244200408847,5.237796090243127E-6,0.001588606985235559
284,186.4890643091676,5.240481422415773E-6,0.0015938474666579746
285,186.41750193988122,5.228272486822602E-6,0.0015990757391447972
286,186.34530220866654,5.204553551377322E-6,0.0016042802926961744
287,186.27382695563773,5.200936795137232E-6,0.0016094812294913117
288,186.2007177278694,5.301058973971149E-6,0.0016147822884652828
289,186.1290014753897,5.307687740786153E-6,0.001620089976206069
290,186.05721051064322,5.30510586139622E-6,0.0016253950820674652
291,185.98573486211706,5.3505804834996E-6,0.001630745662550965
292,185.9139953118797,5.346117649787475E-6,0.0016360917802007524
293,185.84165304540008,5.35871261313016E-6,0.0016414504928138826
294,185.76998653252247,5.368032333778935E-6,0.0016468185251476614
295,185.69878386825675,5.3533683798607E-6,0.0016521718935275222
296,185.62592458179626,5.417334106196749E-6,0.0016575892276337188
297,185.5521896133407,5.42502262420768E-6,0.0016630142502579266
298,185.48048999106803,5.461200064034284E-6,0.001668475450321961
299,185.40960335941713,5.4163859567262586E-6,0.0016738918362786872
300,185.34005710068956,5.401529949539534E-6,0.0016792933662282267
301,185.27043637655277,5.398235826405975E-6,0.0016846916020546326
302,185.1998433349995,5.359095570432038E-6,0.0016900506976250647
303,185.12843289857204,5.404098900317436E-6,0.0016954547965253822
304,185.05755207704482,5.341350704443444E-6,0.0017007961472298256
305,184.98578708442415,5.332648002157387E-6,0.001706128795231983
306,184.91360277253366,5.336092484262857E-6,0.0017114648877162458
307,184.84297739921877,5.2875154282778084E-6,0.0017167524031445236
