#t,ESS,tempDiff,temp
0,999.9999999999848,0.0,0.0
1,999.9898248259082,2.6940001441226542E-5,2.6940001441226542E-5
2,999.9598725456742,2.688175157640186E-5,5.382175301762841E-5
3,999.9101703678022,2.6707124116940975E-5,8.052887713456939E-5
4,999.8404244726208,2.685615997799387E-5,1.0738503711256326E-4
5,999.7511328827563,2.698121120431209E-5,1.3436624831687536E-4
6,999.6420956830822,2.721947215875233E-5,1.6158572047562768E-4
7,999.5141544340247,2.7364515414042667E-5,1.8895023588967033E-4
8,999.3691314008796,2.7099758458213944E-5,2.1604999434788428E-4
9,999.2037266502542,2.731140591688142E-5,2.433614002647657E-4
10,999.0202860064638,2.7207553432618153E-5,2.7056895369738387E-4
11,998.8189892524006,2.7251448992908588E-5,2.978204026902925E-4
12,998.6003928848204,2.7264790727834462E-5,3.250851934181269E-4
13,998.364635748665,2.713828680849048E-5,3.522234802266174E-4
14,998.1133590871684,2.711346791827287E-5,3.7933694814489027E-4
15,997.8417894781951,2.713030997242349E-5,4.0646725811731375E-4
16,997.5566724925819,2.6951629152961195E-5,4.334188872702749E-4
17,997.2558887909537,2.68427218194189E-5,4.6026160908969383E-4
18,996.9428011204287,2.6754584522585897E-5,4.8701619361227975E-4
19,996.6131459416139,2.6730410180054117E-5,5.137466037923339E-4
20,996.2718968528964,2.6508101710083895E-5,5.402547055024178E-4
21,995.9213105826638,2.643389179755573E-5,5.666885972999735E-4
22,995.5542545485708,2.658139964426617E-5,5.932699969442396E-4
23,995.1741933401684,2.660908901605808E-5,6.198790859602977E-4
24,994.7804821186422,2.6681082786842947E-5,6.465601687471407E-4
25,994.3681728493942,2.6998450583339054E-5,6.735586193304798E-4
26,993.9437952866348,2.6956144585521304E-5,7.00514763916001E-4
27,993.5110856725961,2.6958797218592633E-5,7.274735611345937E-4
28,993.0647675274718,2.702885057368434E-5,7.54502411708278E-4
29,992.6045206510541,2.701326120827405E-5,7.815156729165521E-4
30,992.1333049546347,2.710864094743192E-5,8.08624313863984E-4
31,991.6501747833269,2.710207503239609E-5,8.357263888963801E-4
32,991.1500114511119,2.7276736232715202E-5,8.630031251290953E-4
33,990.6484313961608,2.7076765167982174E-5,8.900798902970775E-4
34,990.1429966094134,2.6834973975352377E-5,9.169148642724299E-4
35,989.6297957792865,2.6670713125940302E-5,9.435855773983702E-4
36,989.1116582370502,2.6602885508699265E-5,9.701884629070694E-4
37,988.5786712766933,2.6602968195254107E-5,9.967914311023235E-4
38,988.034357026985,2.6503278586584327E-5,0.0010232947096889078
39,987.4801430726934,2.6465401132992974E-5,0.0010497601108219008
40,986.9140832646472,2.6495060491560376E-5,0.0010762551713134612
41,986.3358285945607,2.638065160961555E-5,0.0011026358229230767
42,985.7514185880746,2.626860349018968E-5,0.0011289044264132665
43,985.1604282867556,2.6185298869170976E-5,0.0011550897252824374
44,984.5582398731231,2.6104881555733346E-5,0.0011811946068381706
45,983.9454942389605,2.6007691133046894E-5,0.0012072022979712175
46,983.312704713396,2.6065983038235834E-5,0.0012332682810094534
47,982.6703583768209,2.610657574461125E-5,0.0012593748567540646
48,982.0187732197785,2.6192722310060206E-5,0.0012855675790641248
49,981.3659364784687,2.6035860082225472E-5,0.0013116034391463503
50,980.7005005794505,2.606265492637899E-5,0.0013376660940727294
51,980.0280624050065,2.5936221622515553E-5,0.001363602315695245
52,979.3533414924494,2.593229567353668E-5,0.0013895346113687815
53,978.6778295427384,2.582441505490643E-5,0.001415359026423688
54,977.9931215002484,2.5921263686546425E-5,0.0014412802901102345
55,977.3000791391704,2.5807438323220048E-5,0.0014670877284334546
56,976.6037522852291,2.5953507926565642E-5,0.0014930412363600202
57,975.9030032136894,2.5774780251934563E-5,0.0015188160166119547
58,975.1916152591414,2.5901448687798363E-5,0.001544717465299753
59,974.4721803525653,2.5836283627952696E-5,0.0015705537489277058
60,973.7502672418133,2.5734041011757515E-5,0.0015962877899394633
61,973.0111813555676,2.5717792121897966E-5,0.0016220055820613613
62,972.271960323518,2.5684718269911105E-5,0.0016476903003312725
63,971.5321659182027,2.5572309766544394E-5,0.001673262610097817
64,970.8023084256951,2.5378997457242792E-5,0.0016986416075550597
65,970.0644076410524,2.5324805134396785E-5,0.0017239664126894566
66,969.328220986443,2.535465553291443E-5,0.001749321068222371
67,968.5908729391368,2.5270332038429077E-5,0.0017745914002608
68,967.8565781754829,2.5257942238573056E-5,0.0017998493424993731
69,967.1265964442315,2.5338325507791315E-5,0.0018251876680071644
70,966.3918759060672,2.5400596370330622E-5,0.001850588264377495
71,965.6538265344838,2.5284711245760937E-5,0.0018758729756232558
72,964.9090070380561,2.541316650022138E-5,0.0019012861421234771
73,964.1526265421485,2.564479318499175E-5,0.0019269309353084688
74,963.4094397887766,2.5456085165346473E-5,0.0019523870204738152
75,962.675571717862,2.543946807155198E-5,0.001977826488545367
76,961.9173678623539,2.5646748942582002E-5,0.002003473237487949
77,961.1515796518883,2.5567643217653908E-5,0.002029040880705603
78,960.3667819748555,2.5682661994956803E-5,0.0020547235427005595
79,959.5677814616811,2.5960354531903125E-5,0.0020806838972324626
80,958.7671115412337,2.5728210154753644E-5,0.002106412107387216
81,957.9648812546855,2.5777769687195713E-5,0.002132189877074412
82,957.1548303646589,2.5768230245473598E-5,0.0021579581073198854
83,956.3364214672512,2.5963250242191408E-5,0.002183921357562077
84,955.5175418336418,2.596411520227838E-5,0.0022098854727643554
85,954.7065939599311,2.5971629337446535E-5,0.002235857102101802
86,953.90703621222,2.570367247181171E-5,0.0022615607745736137
87,953.0968391260918,2.5724776304505267E-5,0.002287285550878119
88,952.2904699970874,2.5587608253291377E-5,0.0023128731591314108
89,951.46541661748,2.5727098081119435E-5,0.00233860025721253
90,950.6120628391573,2.592602166034509E-5,0.0023645262788728754
91,949.7642291476285,2.593717705360824E-5,0.0023904634559264834
92,948.9162324841463,2.593161183577116E-5,0.0024163950677622546
93,948.0582384636832,2.6029366468071707E-5,0.002442424434230326
94,947.1861360379555,2.605906812804166E-5,0.0024684835023583676
95,946.3050826113314,2.605497514227634E-5,0.0024945384775006438
96,945.3921334796348,2.6405643551924935E-5,0.002520944121052569
97,944.4688401042534,2.6135042742705757E-5,0.0025470791637952745
98,943.5393534527727,2.6264329963920094E-5,0.0025733434937591946
99,942.6055324711599,2.612413819042026E-5,0.002599467631949615
100,941.6648141128483,2.5925211012070135E-5,0.002625392842961685
101,940.7122311668488,2.591546182038453E-5,0.0026513083047820696
102,939.7480294296697,2.5975081724927167E-5,0.002677283386506997
103,938.7842026486379,2.6049595405565747E-5,0.0027033329819125627
104,937.8024151989846,2.624161813690215E-5,0.0027295746000494648
105,936.8290391434466,2.638839240400415E-5,0.002755962992453469
106,935.8330540995682,2.6537210651271983E-5,0.002782500203104741
107,934.8459996058423,2.6283911438466047E-5,0.0028087841145432073
108,933.8390457852373,2.6554157153966337E-5,0.0028353382716971736
109,932.8249118354372,2.6417462696850043E-5,0.0028617557343940236
110,931.8155565317038,2.6457013574881715E-5,0.0028882127479689054
111,930.7945735310573,2.669032518106573E-5,0.0029149030731499713
112,929.7580191719601,2.6859057205172807E-5,0.002941762130355144
113,928.7372882556898,2.669236581460734E-5,0.0029684544961697513
114,927.7411540682056,2.687828515488651E-5,0.0029953327813246377
115,926.7616525759527,2.6546854601911735E-5,0.0030218796359265496
116,925.7790562696362,2.6879831064117637E-5,0.0030487594669906673
117,924.7559442033502,2.7432589270381565E-5,0.003076192056261049
118,923.7149119615266,2.7652954302947278E-5,0.0031038450105639963
119,922.6663044352557,2.7690252913681745E-5,0.003131535263477678
120,921.5938308880626,2.7926286980463993E-5,0.003159461550458142
121,920.5402989775015,2.7785581995861585E-5,0.0031872471324540033
122,919.458880838407,2.8055314028212147E-5,0.0032153024464822155
123,918.3969533767943,2.7575060190831455E-5,0.003242877506673047
124,917.3584538295315,2.7567056241002004E-5,0.003270444562914049
125,916.3194348359327,2.7589299952794464E-5,0.0032980338628668436
126,915.2747792311714,2.7680417569378793E-5,0.0033257142804362224
127,914.2321268830284,2.7556010548382797E-5,0.003353270290984605
128,913.1972735207703,2.7666430152726016E-5,0.003380936721137331
129,912.1411048796725,2.7840666246181405E-5,0.0034087773873835124
130,911.0757687526017,2.7731611330964972E-5,0.0034365089987144774
131,910.010647057233,2.759001806865427E-5,0.0034640990167831317
132,908.937272410711,2.751928495184086E-5,0.0034916183017349727
133,907.8294808624114,2.7493439051448554E-5,0.003519111740786421
134,906.7106397445123,2.7687052107371248E-5,0.003546798792893792
135,905.5953748083216,2.765801391716574E-5,0.003574456806810958
136,904.4846100486831,2.7567692980126294E-5,0.0036020244997910845
137,903.3762136138328,2.7465622940378116E-5,0.0036294901227314626
138,902.2987834708399,2.718197186359554E-5,0.003656672094595058
139,901.1998407440502,2.7462018733086374E-5,0.0036841341133281445
140,900.1122125612455,2.7575675927127918E-5,0.0037117097892552724
141,899.0249706382245,2.737159583851146E-5,0.0037390813850937837
142,897.9509806767217,2.7165964308246022E-5,0.00376624734940203
143,896.8769441614257,2.705643656765849E-5,0.0037933037859696882
144,895.827049490689,2.6997906953066687E-5,0.003820301692922755
145,894.7518223378243,2.7055983321208002E-5,0.003847357676243963
146,893.667039212952,2.694249698396218E-5,0.0038743001732279253
147,892.5921510463681,2.687161023673425E-5,0.0039011717834646596
148,891.5324309791065,2.677353008533778E-5,0.003927945313549997
149,890.4484897363692,2.7050225755562038E-5,0.003954995539305559
150,889.3476679580217,2.7238916712714262E-5,0.003982234456018273
151,888.2491682192634,2.7297094319308673E-5,0.004009531550337581
152,887.1473865605974,2.747880355914858E-5,0.00403701035389673
153,886.0403319755801,2.7393021302402957E-5,0.004064403375199133
154,884.9410873880844,2.713544987107986E-5,0.004091538825070213
155,883.8378299741003,2.7063964439580787E-5,0.004118602789509794
156,882.7567649829286,2.6975883002760986E-5,0.004145578672512555
157,881.6605077249689,2.6833665042074486E-5,0.0041724123375546296
158,880.5907695631919,2.6846080827870076E-5,0.0041992584183825
159,879.5214442558361,2.684464189305435E-5,0.004226103060275554
160,878.450335373621,2.689867767125639E-5,0.004253001737946811
161,877.3755934159374,2.6694989103168065E-5,0.004279696727049979
162,876.3107787038691,2.6493938609865736E-5,0.004306190665659845
163,875.2215704075597,2.639646003254098E-5,0.004332587125692386
164,874.1407987659461,2.6383633098272572E-5,0.004358970758790658
165,873.0743663823228,2.62071588763328E-5,0.004385177917666991
166,872.0006205419581,2.6207100556269937E-5,0.004411385018223261
167,870.9215530521678,2.646568826492752E-5,0.004437850706488188
168,869.8498068961085,2.650971641064813E-5,0.004464360422898836
169,868.7788900551698,2.6693444150273302E-5,0.00449105386704911
170,867.730003428994,2.6791971428261628E-5,0.004517845838477371
171,866.6649852864033,2.6748609603823057E-5,0.0045445944480811944
172,865.6223544735084,2.643054599187031E-5,0.004571024994073065
173,864.5573076518921,2.652740169325682E-5,0.004597552395766322
174,863.468459091047,2.648697442961527E-5,0.004624039370195937
175,862.3712202034652,2.6642186409081855E-5,0.004650681556605019
176,861.2722507462227,2.6652999687505284E-5,0.004677334556292524
177,860.1757020428182,2.664032287149874E-5,0.004703974879164023
178,859.0921195101786,2.6621582679935685E-5,0.004730596461843959
179,858.019609004827,2.6592879003784086E-5,0.0047571893408477435
180,856.9391280176401,2.683197186154053E-5,0.004784021312709284
181,855.8443227398287,2.691150767004711E-5,0.004810932820379331
182,854.7330493296533,2.6854688982722783E-5,0.004837787509362054
183,853.6129219394144,2.7064897388954047E-5,0.004864852406751008
184,852.494659117252,2.6978789780055474E-5,0.004891831196531063
185,851.3694035452329,2.6820846428620154E-5,0.0049186520429596835
186,850.2598018716609,2.6778736242419095E-5,0.004945430779202103
187,849.1630739977599,2.6692645114348332E-5,0.004972123424316451
188,848.0643753000033,2.6897115909087914E-5,0.004999020540225539
189,846.9384454361311,2.7007386882399083E-5,0.005026027927107938
190,845.8350315666022,2.6949688728280118E-5,0.005052977615836218
191,844.7274137312208,2.6935855085861268E-5,0.005079913470922079
192,843.6161658296314,2.7039758542270943E-5,0.00510695322946435
193,842.5035815135845,2.7038213204463552E-5,0.005133991442668814
194,841.3919374996806,2.6897430338987217E-5,0.005160888873007801
195,840.2799748982825,2.6733568414609163E-5,0.00518762244142241
196,839.1925779626594,2.6438174743323137E-5,0.005214060616165733
197,838.1022039465631,2.6172817826206763E-5,0.00524023343399194
198,836.9997894316614,2.5982719539471455E-5,0.005266216153531411
199,835.8959550452577,2.606828780908333E-5,0.005292284441340495
200,834.7800813740985,2.6040036933204733E-5,0.005318324478273699
201,833.6698465714979,2.6190406640525883E-5,0.005344514884914225
202,832.5510613360896,2.637417352734544E-5,0.00537088905844157
203,831.4366522232658,2.6237453792103246E-5,0.005397126512233673
204,830.3487859346244,2.592305052448454E-5,0.005423049562758158
205,829.2633164860822,2.5936792167668014E-5,0.005448986354925826
206,828.1840343263153,2.5928773897711956E-5,0.005474915128823538
207,827.1012184871296,2.572394367491692E-5,0.005500639072498455
208,826.0204103550997,2.5947496864272495E-5,0.005526586569362727
209,824.9117824255577,2.6042682480110788E-5,0.005552629251842838
210,823.786152526201,2.6131063635014394E-5,0.0055787603154778525
211,822.6456435807244,2.5930529037700536E-5,0.005604690844515553
212,821.490612396161,2.6076802727821116E-5,0.0056307676472433735
213,820.3316493610315,2.5983328970271093E-5,0.005656750976213645
214,819.1615744897755,2.592768310607374E-5,0.005682678659319719
215,818.0384104725292,2.5987170598930297E-5,0.005708665829918649
216,816.9605764887508,2.6121339728403303E-5,0.005734787169647052
217,815.8686069997923,2.617244046299554E-5,0.005760959610110048
218,814.7627508091463,2.5966941042953013E-5,0.005786926551153001
219,813.671722742237,2.6031794842111077E-5,0.005812958345995112
220,812.5696064174043,2.6231857668520267E-5,0.005839190203663632
221,811.4770210687606,2.613313947453024E-5,0.005865323343138162
222,810.3801201422953,2.6138907340877223E-5,0.0058914622504790395
223,809.2621994044204,2.615027312951205E-5,0.0059176125236085515
224,808.1679465690523,2.610756422939993E-5,0.005943720087837952
225,807.0617977753691,2.606004791017316E-5,0.005969780135748125
226,805.995597821013,2.617887749784033E-5,0.005995959013245965
227,804.9285579355842,2.601208919561795E-5,0.006021971102441582
228,803.8509514637344,2.6024290099350883E-5,0.006047995392540933
229,802.7763886031249,2.5914871298485038E-5,0.006073910263839418
230,801.7251450771552,2.5966194491769375E-5,0.006099876458331188
231,800.68513704776,2.5884522683169273E-5,0.0061257609810143575
232,799.6581658168378,2.5730858403410835E-5,0.006151491839417768
233,798.6335602556934,2.5828520266551748E-5,0.00617732035968432
234,797.7005109082208,2.606105012252004E-5,0.0062033814098068395
235,796.7448128568767,2.6077908470909358E-5,0.0062294593182777485
236,795.8136400336628,2.578838843743033E-5,0.006255247706715179
237,794.8615352336474,2.5882909827826618E-5,0.006281130616543005
238,793.89571540533,2.584892838221294E-5,0.0063069795449252185
239,792.9168138077766,2.5794470494212452E-5,0.006332774015419431
240,791.9383002048004,2.5747084576575546E-5,0.006358521099996006
241,790.9653240044058,2.5749092461826312E-5,0.006384270192457833
242,789.9827691360747,2.5610917975554346E-5,0.006409881110433387
243,788.9886226012856,2.56425914345071E-5,0.006435523701867895
244,787.9869281309088,2.5784385707810505E-5,0.006461308087575705
245,786.9385191912564,2.6194203029864602E-5,0.00648750229060557
246,785.8795209434677,2.6209436811943735E-5,0.0065137117274175135
247,784.7887596078408,2.6576929139268763E-5,0.006540288656556782
248,783.6278790220058,2.6607739036409734E-5,0.006566896395593192
249,782.4633513734078,2.6653055007424506E-5,0.0065935494506006165
250,781.3143767696123,2.6699663701288152E-5,0.006620249114301905
251,780.1783939852569,2.7005880996519728E-5,0.006647254995298424
252,779.0430347944551,2.72206781351411E-5,0.006674475673433566
253,777.9197569474627,2.7145101826534474E-5,0.0067016207752601
254,776.8064798095463,2.7093306924283856E-5,0.006728714082184384
255,775.6721825759266,2.701601151516468E-5,0.006755730093699549
256,774.5240755980467,2.699435271342776E-5,0.006782724446412976
257,773.3607048410465,2.7027292672306628E-5,0.006809751739085283
258,772.1995383664334,2.7142707036145728E-5,0.0068368944461214285
259,770.9976987055987,2.6940511995881848E-5,0.00686383495811731
260,769.8060221217955,2.6960724161391947E-5,0.006890795682278702
261,768.6807354750794,2.6962935829432946E-5,0.006917758618108135
262,767.5571586147794,2.6774711944610787E-5,0.0069445333300527465
263,766.4054380585968,2.6692431447665803E-5,0.006971225761500412
264,765.2690527234535,2.6365127808187013E-5,0.0069975908893085996
265,764.1256748305011,2.6580848235550267E-5,0.00702417173754415
266,762.9781484987425,2.6477389842790357E-5,0.00705064912738694
267,761.8499983357377,2.639601276932456E-5,0.007077045140156265
268,760.7508042443776,2.6380138615718325E-5,0.007103425278771983
269,759.6298459697459,2.659976325056398E-5,0.007130025042022547
270,758.4892971145424,2.644743585737694E-5,0.007156472477879924
271,757.3454376291539,2.6783532706756213E-5,0.00718325601058668
272,756.1960672706092,2.6842187259117214E-5,0.007210098197845797
273,755.0466204632603,2.698114229455185E-5,0.007237079340140349
274,753.9580809005771,2.70088405263696E-5,0.007264088180666718
275,752.8486542289046,2.741156564606544E-5,0.007291499746312783
276,751.72983376509,2.7078745191586498E-5,0.007318578491504369
277,750.5729466129463,2.713021157124876E-5,0.007345708703075618
278,749.4436753942118,2.7158722380450047E-5,0.007372867425456068
279,748.3190833092984,2.7162138247703865E-5,0.007400029563703772
280,747.2079430740295,2.7288146431455378E-5,0.007427317710135227
281,746.0839751082646,2.732186596140165E-5,0.007454639576096629
282,744.9447328407396,2.713875905780832E-5,0.007481778335154437
283,743.8022947002022,2.6942049637697148E-5,0.007508720384792134
284,742.6545317577427,2.665419784775309E-5,0.007535374582639887
285,741.504444760785,2.6716285005445276E-5,0.007562090867645332
286,740.3251464853839,2.6879902094619844E-5,0.007588970769739952
287,739.1010871334,2.7035881159357666E-5,0.00761600665089931
288,737.9002981547637,2.673444510038384E-5,0.007642741095999694
289,736.6859083805911,2.647322850346911E-5,0.007669214324503163
290,735.5049899388498,2.6265068246577047E-5,0.00769547939274974
291,734.2878368999919,2.6496739812307158E-5,0.007721976132562047
292,733.0950308672476,2.6313992389452428E-5,0.007748290124951499
293,731.8946722927099,2.613776234473377E-5,0.0077744278872962334
294,730.7160912752247,2.625980171847545E-5,0.007800687689014709
295,729.549772330601,2.6385978040665138E-5,0.007827073667055373
296,728.4091340194262,2.634023677083291E-5,0.007853413903826207
297,727.2377123580036,2.6660445382938614E-5,0.007880074349209145
298,726.0686895237985,2.671774269779266E-5,0.007906792091906938
299,724.9216940746879,2.6640827603231147E-5,0.007933432919510168
300,723.7650136942904,2.659047176880378E-5,0.007960023391278973
301,722.6074714232885,2.6624834852812632E-5,0.007986648226131786
302,721.4765562636214,2.649500671734222E-5,0.008013143232849127
303,720.3487665828892,2.6509111881088063E-5,0.008039652344730216
304,719.2242745579825,2.669532024820811E-5,0.008066347664978425
305,718.1321203369364,2.6511028742925782E-5,0.00809285869372135
306,717.0525783271628,2.631871400814521E-5,0.008119177407729496
307,715.9596939715105,2.6491532898216393E-5,0.008145668940627713
308,714.863128639619,2.624337064341997E-5,0.008171912311271132
309,713.7998390616984,2.6178735803519286E-5,0.00819809104707465
