#t,ESS,tempDiff,temp
0,999.9999999999848,0.0,0.0
1,999.9901418617866,2.85994834561582E-5,2.85994834561582E-5
2,999.9606876489638,2.8458212201977118E-5,5.705769565813532E-5
3,999.9120409979529,2.8426770185107468E-5,8.548446584324279E-5
4,999.8442577365246,2.832900157212767E-5,1.1381346741537046E-4
5,999.7569764448439,2.8497048748696305E-5,1.4231051616406677E-4
6,999.650488823046,2.847177431942683E-5,1.707822904834936E-4
7,999.5234897928403,2.860521425819035E-5,1.9938750474168395E-4
8,999.3757754430417,2.8769505785884917E-5,2.2815701052756888E-4
9,999.2110669828288,2.84915024262253E-5,2.566485129537942E-4
10,999.0301049034928,2.8510655645970048E-5,2.8515916859976425E-4
11,998.8344236821093,2.832838087184118E-5,3.134875494716054E-4
12,998.6228932990039,2.819358354962177E-5,3.416811330212272E-4
13,998.3952182966499,2.8259790686219215E-5,3.6994092370744644E-4
14,998.1470798511081,2.836372771358827E-5,3.983046514210347E-4
15,997.8811737652165,2.8497839197473765E-5,4.268024906185085E-4
16,997.59829860481,2.8373794341201923E-5,4.551762849597104E-4
17,997.297755488961,2.8504147134305956E-5,4.836804320940164E-4
18,996.9827906029693,2.8749426193430247E-5,5.124298582874467E-4
19,996.6494112808307,2.8746039617385285E-5,5.411758979048319E-4
20,996.2987533128457,2.9025496511397695E-5,5.702013944162296E-4
21,995.9328603222708,2.9039960119536973E-5,5.992413545357666E-4
22,995.5513033565084,2.8970776038679995E-5,6.282121305744465E-4
23,995.1551595106463,2.8859034053813252E-5,6.570711646282598E-4
24,994.7474657620252,2.8854680047019143E-5,6.859258446752789E-4
25,994.3249287900861,2.8919586436204826E-5,7.148454311114837E-4
26,993.8903357510611,2.8958582192056953E-5,7.438040133035407E-4
27,993.439535625546,2.9087645321580082E-5,7.728916586251207E-4
28,992.9735772254103,2.905816379065066E-5,8.019498224157714E-4
29,992.4931821199747,2.8958092316975536E-5,8.309079147327469E-4
30,991.9974089944761,2.9188541163059838E-5,8.600964558958068E-4
31,991.4872779681207,2.917001907524021E-5,8.89266474971047E-4
32,990.9657936316244,2.919394271770113E-5,9.184604176887481E-4
33,990.4283322039345,2.9308987986211304E-5,9.477694056749594E-4
34,989.8847134958477,2.910540665477315E-5,9.768748123297325E-4
35,989.3323045096658,2.8998003552631495E-5,0.001005872815882364
36,988.771007389166,2.9212858792156564E-5,0.0010350856746745205
37,988.1981777696041,2.9009842741273673E-5,0.0010640955174157942
38,987.6131128904112,2.8947439060392846E-5,0.0010930429564761871
39,987.0288010086966,2.8887085702785034E-5,0.001121930042178972
40,986.4379561214374,2.8657239556165398E-5,0.0011505872817351374
41,985.8508192480308,2.8252961918936062E-5,0.0011788402436540735
42,985.2501909941568,2.858914733712679E-5,0.0012074293909912002
43,984.6434264412977,2.8375158787355476E-5,0.0012358045497785556
44,984.0216060868848,2.8384600803773866E-5,0.0012641891505823296
45,983.3942690696488,2.822617572603194E-5,0.0012924153263083615
46,982.7531996438775,2.81576299386052E-5,0.0013205729562469667
47,982.0908268285688,2.8362069045811996E-5,0.0013489350252927786
48,981.4253384145877,2.8240069868765867E-5,0.0013771750951615445
49,980.7465724712665,2.814862356988697E-5,0.0014053237187314313
50,980.0604286815823,2.821361903374167E-5,0.001433537337765173
51,979.3685284357696,2.809271028699801E-5,0.001461630048052171
52,978.670826571451,2.8064740616458756E-5,0.0014896947886686297
53,977.9554421933169,2.8350948423630496E-5,0.0015180457370922603
54,977.2284930085161,2.8505312847607543E-5,0.0015465510499398677
55,976.4764974776868,2.8530130593169626E-5,0.0015750811805330374
56,975.717269083925,2.8518427403878094E-5,0.0016035996079369155
57,974.9494905401542,2.8489241756456032E-5,0.0016320888496933715
58,974.1631425353813,2.840586917876732E-5,0.0016604947188721389
59,973.3760526000204,2.8302529070759914E-5,0.0016887972479428988
60,972.5844128355778,2.8517836243736233E-5,0.001717315084186635
61,971.7772616881387,2.8563068211725755E-5,0.0017458781523983606
62,970.9656202192281,2.851381853954602E-5,0.0017743919709379066
63,970.1564944526784,2.838741997532893E-5,0.0018027793909132356
64,969.3378333994646,2.8363254198797404E-5,0.001831142645112033
65,968.5073773532611,2.8150595809844746E-5,0.0018592932409218779
66,967.676192425502,2.8105870342789307E-5,0.001887399111264667
67,966.8336988853762,2.8377149573405276E-5,0.0019157762608380724
68,965.9690959775419,2.846117506462981E-5,0.001944237435902702
69,965.10190389543,2.835261681658182E-5,0.001972590052719284
70,964.2259797957822,2.8290223429883253E-5,0.0020008802761491674
71,963.3535966307044,2.825274401248511E-5,0.0020291330201616525
72,962.4587689831666,2.8560400733327846E-5,0.0020576934208949805
73,961.5666433991565,2.8574196807758747E-5,0.0020862676177027394
74,960.6449342530876,2.8860344554607893E-5,0.0021151279622573472
75,959.7077522153792,2.9093947847809014E-5,0.002144221910105156
76,958.7618820740132,2.9201634454718035E-5,0.002173423544559874
77,957.7937750790796,2.954871670377003E-5,0.002202972261263644
78,956.8119550613485,2.970865770684697E-5,0.002232680918970491
79,955.8162118588901,2.9928471931963088E-5,0.002262609390902454
80,954.8101507929174,3.003121135941455E-5,0.0022926406022618687
81,953.7936637355732,3.0021385338797694E-5,0.0023226619876006663
82,952.7798988398106,2.9896889931548E-5,0.0023525588775322142
83,951.743780738438,2.9837506448538806E-5,0.002382396383980753
84,950.7099257843482,2.9634556804495165E-5,0.0024120309407852482
85,949.6645105188738,2.9599709916629547E-5,0.0024416306507018776
86,948.606255066632,2.9577352072322178E-5,0.0024712080027741996
87,947.5396442980042,2.9565686617610108E-5,0.0025007736893918097
88,946.4683052205995,2.9312825768680977E-5,0.0025300865151604906
89,945.3795656287236,2.9636093891877263E-5,0.002559722609052368
90,944.2929753717224,2.952075366420967E-5,0.0025892433627165774
91,943.1743913275463,2.9739612556687382E-5,0.0026189829752732647
92,942.0448262168871,2.9646633195988122E-5,0.002648629608469253
93,940.9063352092304,2.966122306315071E-5,0.0026782908315324035
94,939.7788209362078,2.9413761482868878E-5,0.0027077045930152723
95,938.6467359257701,2.9219553779116103E-5,0.0027369241467943882
96,937.5029622425836,2.9265055929941378E-5,0.0027661892027243296
97,936.35521398656,2.939033887322131E-5,0.002795579541597551
98,935.1940762924354,2.9531071480648195E-5,0.0028251106130781994
99,934.0198489794896,2.9565869156266238E-5,0.0028546764822344655
100,932.850081165308,2.9455632603678627E-5,0.002884132114838144
101,931.6710733818375,2.9578332542907718E-5,0.002913710447381052
102,930.496221912244,2.9391836153824823E-5,0.0029431022835348765
103,929.3009384067478,2.9243566640214386E-5,0.002972345850175091
104,928.1137400624315,2.923959190858902E-5,0.0030015854420836798
105,926.9340044453454,2.9035224231107232E-5,0.003030620666314787
106,925.7675132791588,2.9206286388627576E-5,0.0030598269527034147
107,924.5943401773482,2.927628968659159E-5,0.0030891032423900062
108,923.4206685835063,2.8964121582346176E-5,0.0031180673639723522
109,922.2478817639748,2.9028275302840712E-5,0.003147095639275193
110,921.0693633447794,2.906050477390521E-5,0.0031761561440490985
111,919.8917825163157,2.909049127147264E-5,0.003205246635320571
112,918.703565722178,2.936562144035125E-5,0.0032346122567609224
113,917.5185825923398,2.9441622562421305E-5,0.0032640538793233436
114,916.3307384553148,2.923434234690493E-5,0.0032932882216702487
115,915.1295641724288,2.9356867850173915E-5,0.0033226450895204227
116,913.9309920867934,2.909693622033955E-5,0.0033517420257407624
117,912.7243650705176,2.9122767272582844E-5,0.0033808647930133454
118,911.5189697555334,2.9038691745000354E-5,0.0034099034847583456
119,910.3202948441917,2.8860466207626833E-5,0.0034387639509659723
120,909.1066664520749,2.897567428790835E-5,0.0034677396252538804
121,907.8965570374763,2.8902980558238636E-5,0.003496642605812119
122,906.6833431662533,2.8853136832355427E-5,0.0035254957426444746
123,905.4773087776489,2.8776548069857324E-5,0.0035542722907143318
124,904.265927452209,2.8679400531273663E-5,0.0035829516912456055
125,903.0561004992427,2.8543977024429928E-5,0.0036114956682700354
126,901.8390659689812,2.8362098554888687E-5,0.003639857766824924
127,900.6282416134063,2.821274698289372E-5,0.0036680705138078177
128,899.4142764617445,2.836609704112368E-5,0.0036964366108489413
129,898.1844236334814,2.8557781826352588E-5,0.003724994392675294
130,896.939372242783,2.859739223619984E-5,0.0037535917849114936
131,895.6832143912306,2.8663475830508614E-5,0.003782255260742002
132,894.4322211118006,2.863886138955455E-5,0.0038108941221315566
133,893.1737217917446,2.8608170079350646E-5,0.0038395022922109072
134,891.916239827648,2.858682698933804E-5,0.003868089119200245
135,890.6571872450688,2.861305784145556E-5,0.0038967021770417005
136,889.3983274359003,2.862145063446492E-5,0.003925323627676165
137,888.1597581826188,2.826358472589448E-5,0.003953587212402059
138,886.923419886405,2.8109896715333506E-5,0.003981697109117392
139,885.651722447911,2.8424714207034538E-5,0.004010121823324427
140,884.3634946147794,2.8609960956528154E-5,0.0040387317842809555
141,883.0580571224355,2.858221117125339E-5,0.004067313995452209
142,881.7477138249628,2.8581628051518693E-5,0.004095895623503727
143,880.4374009387546,2.8637062700105145E-5,0.004124532686203833
144,879.1234934653567,2.876344849811801E-5,0.004153296134701951
145,877.8233198910391,2.8591805136407507E-5,0.004181887939838359
146,876.5141988909477,2.8400004704344277E-5,0.004210287944542703
147,875.2064339179042,2.8483223305725963E-5,0.004238771167848428
148,873.8876037226111,2.8677958811765766E-5,0.004267449126660194
149,872.5591657496433,2.8775334221364263E-5,0.004296224460881558
150,871.2114593990133,2.8899422201177714E-5,0.004325123883082736
151,869.8625021775964,2.909638347614522E-5,0.004354220266558881
152,868.5167023766104,2.9127926289954486E-5,0.0043833481928488354
153,867.1737337270438,2.924206091482575E-5,0.004412590253763661
154,865.8189583985534,2.9333184446623893E-5,0.004441923438210285
155,864.485643832714,2.9092931892574574E-5,0.00447101637010286
156,863.1550349921749,2.899232700368867E-5,0.0045000086971065485
157,861.8231441576023,2.901229349101599E-5,0.004529020990597565
158,860.4668807743315,2.896751778045031E-5,0.004557988508378015
159,859.085943712244,2.9222932182171842E-5,0.004587211440560186
160,857.7103547459155,2.9075464613712865E-5,0.004616286905173899
161,856.3147279519524,2.8931880550559176E-5,0.004645218785724458
162,854.9448470597841,2.867741815217732E-5,0.0046738962038766355
163,853.5619390737855,2.8851309839287052E-5,0.004702747513715922
164,852.1810537024721,2.889067682028011E-5,0.004731638190536203
165,850.8063784185499,2.9074425633812036E-5,0.004760712616170015
166,849.4254540229797,2.894274391405739E-5,0.004789655360084072
167,848.0212760839922,2.9076724872465435E-5,0.0048187320849565375
168,846.6391400171512,2.885843456185728E-5,0.004847590519518395
169,845.2527667962878,2.8974273844976545E-5,0.004876564793363371
170,843.8630978858454,2.8757437273635476E-5,0.004905322230637007
171,842.4696871826942,2.8497624244117452E-5,0.004933819854881124
172,841.0955865783155,2.8490940713410025E-5,0.004962310795594534
173,839.7645784877741,2.8475281542682174E-5,0.004990786077137216
174,838.418065213772,2.868236073601858E-5,0.005019468437873235
175,837.073676710841,2.8859292217478282E-5,0.005048327730090714
176,835.7350735466274,2.8641447795050842E-5,0.005076969177885764
177,834.3611599652417,2.9051765393929653E-5,0.005106020943279694
178,833.0063334638511,2.8645669919807153E-5,0.005134666613199501
179,831.6442388326531,2.8673178420731404E-5,0.005163339791620232
180,830.283796356646,2.869882443405264E-5,0.005192038616054285
181,828.9130874105954,2.8903181050501052E-5,0.0052209417971047865
182,827.5719279595712,2.8785960918473616E-5,0.00524972775802326
183,826.2541917746495,2.8745178895776306E-5,0.005278472936919036
184,824.912236468425,2.878293480999163E-5,0.005307255871729027
185,823.5531820641398,2.889142207563916E-5,0.005336147293804666
186,822.1846880086744,2.9109411980107952E-5,0.005365256705784774
187,820.7848463864686,2.9034009490345464E-5,0.00539429071527512
188,819.3714465174578,2.929090369427421E-5,0.005423581618969394
189,817.9587125460258,2.9424821935046488E-5,0.00545300644090444
190,816.5145483752956,2.922615488807312E-5,0.0054822325957925135
191,815.0577633098859,2.9186066649611253E-5,0.005511418662442125
192,813.6007892444352,2.911887341121245E-5,0.005540537535853337
193,812.1409185432133,2.9232197463041822E-5,0.005569769733316379
194,810.7064069741457,2.8996461769896942E-5,0.005598766195086277
195,809.287728539865,2.8948931519019355E-5,0.005627715126605296
196,807.9237087198665,2.8855389614657046E-5,0.005656570516219953
197,806.5833325592089,2.860552906610271E-5,0.005685176045286055
198,805.2354625652597,2.8677877028233664E-5,0.005713853922314289
199,803.8785371016567,2.884826061895087E-5,0.0057427021829332394
200,802.5191473760428,2.8968340488608802E-5,0.005771670523421848
201,801.1508972001901,2.8900503502452037E-5,0.0058005710269243
202,799.790348135932,2.8758026505871487E-5,0.005829329053430171
203,798.3992975512116,2.8725981220201014E-5,0.005858055034650372
204,797.0247858618674,2.8746919624666276E-5,0.005886801954275038
205,795.6568556159095,2.8599838077893876E-5,0.005915401792352932
206,794.2963452404533,2.8662229848701085E-5,0.0059440640222016335
207,792.9277500036367,2.841887354533513E-5,0.005972482895746968
208,791.5670459853911,2.846965321759035E-5,0.006000952548964558
209,790.2203778539102,2.8439789394271873E-5,0.00602939233835883
210,788.8478405014004,2.8292453599515695E-5,0.006057684791958346
211,787.4581488420562,2.824616354461649E-5,0.006085930955502962
212,786.0548342364493,2.8196117081131542E-5,0.006114127072584094
213,784.6360619521124,2.844341258908397E-5,0.006142570485173178
214,783.2072784100862,2.8688239666756266E-5,0.0061712587248399335
215,781.7764529209305,2.8840944940615025E-5,0.0062000996697805484
216,780.3269725568499,2.898391686069732E-5,0.006229083586641246
217,778.8697204345192,2.9252245009221682E-5,0.0062583358316504675
218,777.3999660382898,2.9072013279348824E-5,0.006287407844929816
219,775.9307435376116,2.9225431588436297E-5,0.006316633276518252
220,774.4397447877108,2.9336167407007112E-5,0.006345969443925259
221,772.9533830300609,2.926629244712371E-5,0.006375235736372383
222,771.4686523799849,2.9038629800920094E-5,0.006404274366173303
223,769.9936089891954,2.9007144883704357E-5,0.006433281511057007
224,768.5132332510126,2.8840623789952463E-5,0.00646212213484696
225,767.0260548271442,2.8818530466217045E-5,0.006490940665313177
226,765.5295537381961,2.8878470174750415E-5,0.006519819135487927
227,764.0873211953755,2.886333536546288E-5,0.006548682470853389
228,762.6563215233019,2.8901344175034457E-5,0.006577583815028424
229,761.2611101560664,2.875269166805825E-5,0.006606336506696482
230,759.8640993460853,2.8757360565926565E-5,0.0066350938672624085
231,758.4661392665373,2.883330561433631E-5,0.006663927172876745
232,757.0738747813479,2.8738658453395014E-5,0.00669266583133014
233,755.710025345269,2.8460382959883825E-5,0.006721126214290023
234,754.335977307657,2.871219797587544E-5,0.006749838412265899
235,752.9746006150604,2.8799266799796238E-5,0.006778637679065695
236,751.6462372168614,2.8704003081775315E-5,0.00680734168214747
237,750.3083772913142,2.8758371773433563E-5,0.006836100053920904
238,748.9623389240345,2.8700943142482298E-5,0.006864800997063386
239,747.620675748157,2.864469793916865E-5,0.006893445695002554
240,746.2927476159483,2.843342480444298E-5,0.006921879119806997
241,744.986397858106,2.847788292959001E-5,0.006950357002736588
242,743.6713839215711,2.8610752127160075E-5,0.006978967754863748
243,742.3549763759537,2.8399804062551306E-5,0.007007367558926299
244,741.012069510131,2.8282985654474144E-5,0.007035650544580773
245,739.6846178707091,2.821771249191455E-5,0.007063868257072688
246,738.370408572504,2.810001044325666E-5,0.007091968267515945
247,737.0391205770583,2.8389291305310808E-5,0.007120357558821256
248,735.7001811861246,2.86613937440748E-5,0.0071490189525653305
249,734.3490156763735,2.8801153450260976E-5,0.007177820106015592
250,733.0419481316105,2.861962041061881E-5,0.00720643972642621
251,731.7641590370679,2.8415031389200214E-5,0.00723485475781541
252,730.4918749081372,2.8634565040660864E-5,0.007263489322856071
253,729.2154553759839,2.87096631830025E-5,0.007292198986039073
254,727.9948842619685,2.8792481749025872E-5,0.007320991467788099
255,726.77908505551,2.897903763171695E-5,0.007349970505419816
256,725.5615570423292,2.895258357323713E-5,0.007378923088993053
257,724.3339837097392,2.8864496524959972E-5,0.007407787585518013
258,723.0894623574143,2.9202179475514477E-5,0.0074369897649935275
259,721.8275646262721,2.9412273948905833E-5,0.007466402038942433
260,720.599206323441,2.9574914428361033E-5,0.007495976953370794
261,719.3650442997989,2.985645447740833E-5,0.007525833407848202
262,718.1468753107591,2.9737048309953982E-5,0.0075555704561581566
263,716.8868962456525,2.966662623743361E-5,0.00758523708239559
264,715.6516738911273,2.9683901880515656E-5,0.007614920984276106
265,714.4528197893171,2.971336104934207E-5,0.007644634345325448
266,713.257914112851,2.965103700710759E-5,0.007674285382332556
267,712.0761392807336,2.960854215079697E-5,0.007703893924483353
268,710.8962304600399,2.9450998677035963E-5,0.007733344923160389
269,709.6937160343651,2.951380941357279E-5,0.007762858732573962
270,708.4479999237948,2.9400045412842594E-5,0.007792258777986804
271,707.2176545059986,2.9463740316856828E-5,0.00782172251830366
272,705.9896880874237,2.9531062243044417E-5,0.007851253580546705
273,704.7574048771763,2.939019935521039E-5,0.007880643779901915
274,703.5118462912305,2.919387931787552E-5,0.007909837659219791
275,702.3023054596355,2.896529378625082E-5,0.007938802953006042
276,701.0759783795831,2.907417798029008E-5,0.007967877130986333
277,699.8145165810147,2.908288236761243E-5,0.007996960013353946
278,698.5354927062288,2.8994405248905644E-5,0.00802595441860285
279,697.2265747544405,2.8918467651419132E-5,0.008054872886254269
280,695.9143539072348,2.8840774123907848E-5,0.008083713660378177
281,694.631212232193,2.8890576519828523E-5,0.008112604236898005
282,693.3350253565563,2.9028179180062152E-5,0.008141632416078067
283,692.011515131376,2.9056963385790912E-5,0.008170689379463858
284,690.7038710124631,2.8967782358178942E-5,0.008199657161822037
285,689.4328313805461,2.8771471650359623E-5,0.008228428633472397
286,688.1895388934774,2.847674774142807E-5,0.008256905381213825
287,686.941974443454,2.851924836734634E-5,0.008285424629581171
288,685.7032805784594,2.8508936055565838E-5,0.008313933565636738
289,684.4486525213283,2.848675505751792E-5,0.008342420320694256
290,683.2076354628683,2.832878255728135E-5,0.008370749103251538
291,681.9814019045441,2.8423353361606257E-5,0.008399172456613145
292,680.7627643482014,2.84208234467494E-5,0.008427593280059894
293,679.5187495868993,2.8247818614300237E-5,0.008455841098674194
294,678.2462198404279,2.848045291053336E-5,0.008484321551584727
295,676.9404686202413,2.834686562976214E-5,0.00851266841721449
296,675.6425747047841,2.802748897997798E-5,0.008540695906194468
297,674.3873763699473,2.7984442432650248E-5,0.008568680348627117
298,673.124574549792,2.796341805289198E-5,0.008596643766680009
299,671.842904201499,2.796201912007536E-5,0.008624605785800083
300,670.5977452111082,2.799972013714471E-5,0.008652605505937229
301,669.3822134618633,2.7963788554960448E-5,0.008680569294492188
302,668.1337975021939,2.8170978998552506E-5,0.008708740273490742
303,666.8973506240827,2.8153997157414294E-5,0.008736894270648155
304,665.6624483672248,2.8249861930715088E-5,0.00876514413257887
305,664.4241431518901,2.813546097901367E-5,0.008793279593557884
306,663.1524659601246,2.836235227943193E-5,0.008821641945837316
307,661.8745106786931,2.837237775498411E-5,0.0088500143235923
308,660.6230939395277,2.8464731972906787E-5,0.008878479055565207
309,659.4109116556971,2.8553675574044324E-5,0.00890703273113925
310,658.1913572321059,2.8687208311335227E-5,0.008935719939450585
