#t,ESS,tempDiff,temp
0,200.00000000000065,0.0,0.0
1,199.9998256213766,4.753938142187549E-6,4.753938142187549E-6
2,199.99931444732013,4.727233198636714E-6,9.481171340824263E-6
3,199.99847478667778,4.71759306812222E-6,1.4198764408946482E-5
4,199.99729158642856,4.737645359454187E-6,1.8936409768400668E-5
5,199.99576853228578,4.747753390100289E-6,2.3684163158500957E-5
6,199.99390067840363,4.715863328898872E-6,2.840002648739983E-5
7,199.99170717856978,4.715067226597016E-6,3.3115093713996846E-5
8,199.98916190075738,4.7399998087935476E-6,3.785509352279039E-5
9,199.98631320281018,4.681116488732631E-6,4.2536210011523024E-5
10,199.98312874493857,4.696330117475259E-6,4.723254012899828E-5
11,199.97959847594527,4.6988029122892315E-6,5.1931343041287516E-5
12,199.97572898895964,4.736469906939184E-6,5.66678129482267E-5
13,199.97148560781608,4.725318997036935E-6,6.139313194526363E-5
14,199.96693178601558,4.69959168503825E-6,6.609272363030188E-5
15,199.96203977720663,4.702601710937382E-6,7.079532534123926E-5
16,199.95687931496306,4.6844975038588556E-6,7.547982284509812E-5
17,199.95136099525487,4.686549997884569E-6,8.016637284298269E-5
18,199.9455401493392,4.673351505270954E-6,8.483972434825364E-5
19,199.93939154956692,4.638945955954873E-6,8.947867030420851E-5
20,199.93292467828255,4.632290809930544E-6,9.411096111413906E-5
21,199.92610461272855,4.6541572932834615E-6,9.876511840742252E-5
22,199.91898194078553,4.638242094559569E-6,1.0340336050198209E-4
23,199.91153478855395,4.6129093785594986E-6,1.080162698805416E-4
24,199.9037280979799,4.633600426730915E-6,1.1264987030727251E-4
25,199.89554132327493,4.597175667308674E-6,1.1724704597458118E-4
26,199.88690774345622,4.624274880228335E-6,1.2187132085480952E-4
27,199.87801023419303,4.563490321060742E-6,1.2643481117587027E-4
28,199.86871870178584,4.592048118677752E-6,1.3102685929454802E-4
29,199.85906013916286,4.59874743569686E-6,1.3562560673024488E-4
30,199.84916134764498,4.625011857306912E-6,1.4025061858755178E-4
31,199.8389597678547,4.626829041519631E-6,1.448774476290714E-4
32,199.82856564385872,4.649361124272494E-6,1.495268087533439E-4
33,199.8176719244402,4.676492824031643E-6,1.5420330157737554E-4
34,199.80659365639906,4.6258135545317136E-6,1.5882911513190724E-4
35,199.7949852060842,4.670336134180723E-6,1.6349945126608798E-4
36,199.78310807103276,4.652047820180326E-6,1.681514990862683E-4
37,199.7709988313892,4.665525346315571E-6,1.7281702443258388E-4
38,199.75880476636664,4.680118566092349E-6,1.7749714299867623E-4
39,199.74621047669658,4.721562585569961E-6,1.822187055842462E-4
40,199.73297831056345,4.782966856895963E-6,1.8700167244114216E-4
41,199.7194754902272,4.8135418957657896E-6,1.9181521433690794E-4
42,199.70533859265768,4.837914913546826E-6,1.9665312925045477E-4
43,199.6907302327227,4.842438418934517E-6,2.014955676693893E-4
44,199.67564508274677,4.792290402731374E-6,2.0628785807212067E-4
45,199.6600701708863,4.796567146586725E-6,2.1108442521870739E-4
46,199.64385890563202,4.857653352084743E-6,2.1594207857079213E-4
47,199.62702012584035,4.9092258140009624E-6,2.2085130438479308E-4
48,199.60976800967165,4.948720388279418E-6,2.258000247730725E-4
49,199.59229113464752,4.906150622189478E-6,2.3070617539526196E-4
50,199.5742945000114,4.958764638015358E-6,2.3566494003327733E-4
51,199.5558000388041,4.966084857781897E-6,2.4063102489105923E-4
52,199.53726691256324,4.982488391972038E-6,2.4561351328303125E-4
53,199.51799603168504,5.021723940115441E-6,2.506352372231467E-4
54,199.49846936888557,5.028020061135049E-6,2.5566325728428176E-4
55,199.47868423733698,5.038881710975664E-6,2.6070213899525744E-4
56,199.45837388702606,5.080544637361961E-6,2.657826836326194E-4
57,199.437823635166,5.031265806451455E-6,2.708139494390709E-4
58,199.41723704678873,5.0351466847287615E-6,2.7584909612379967E-4
59,199.39638714293721,5.061635413066013E-6,2.809107315368657E-4
60,199.37521658928014,5.013167260174228E-6,2.8592389879703993E-4
61,199.35377373962845,5.016196815262261E-6,2.909400956123022E-4
62,199.33215494730317,5.0581059416714415E-6,2.9599820155397366E-4
63,199.31029849651034,5.04510193787032E-6,3.01043303491844E-4
64,199.28810023757526,5.032721141637502E-6,3.0607602463348147E-4
65,199.26582537037302,5.021335680889432E-6,3.110973603143709E-4
66,199.24314472082244,5.0483874823520175E-6,3.161457477967229E-4
67,199.22007552201998,5.055204984661871E-6,3.2120095278138477E-4
68,199.19699388272232,5.039105360493362E-6,3.2624005814187813E-4
69,199.17416547981378,4.971227690423752E-6,3.312112858323019E-4
70,199.1509999611239,4.956756613108681E-6,3.3616804244541055E-4
71,199.1276229661929,4.952654347651257E-6,3.411206967930618E-4
72,199.10414329666048,4.950746249209089E-6,3.4607144304227093E-4
73,199.08036881424692,4.91024548504675E-6,3.5098168852731767E-4
74,199.056086433002,4.892459334689543E-6,3.558741478620072E-4
75,199.0315033368184,4.8533644059917E-6,3.607275122679989E-4
76,199.00699481579323,4.867117157172256E-6,3.655946294251711E-4
77,198.98229691920682,4.893379527476337E-6,3.7048800895264747E-4
78,198.9568610968354,4.958493534007346E-6,3.754465024866548E-4
79,198.93071219585647,4.975925252949515E-6,3.804224277396043E-4
80,198.90440519526436,4.965247152942618E-6,3.853876748925469E-4
81,198.87755587721188,4.938797208937755E-6,3.9032647210148467E-4
82,198.8507381264399,4.894503016824792E-6,3.9522097511830945E-4
83,198.82322258464302,4.960589604055601E-6,4.0018156472236506E-4
84,198.7956474823796,4.973793715784147E-6,4.051553584381492E-4
85,198.76796432631113,4.976600047663625E-6,4.1013195848581285E-4
86,198.73939025580898,5.031513321502258E-6,4.151634718073151E-4
87,198.71040185503756,4.993367707843304E-6,4.201568395151584E-4
88,198.68122812367653,4.969339362042026E-6,4.251261788772004E-4
89,198.65158279145658,4.977537861356778E-6,4.3010371673855716E-4
90,198.62247604464878,4.974746730362742E-6,4.350784634689199E-4
91,198.59308068460513,4.98669208046754E-6,4.4006515554938745E-4
92,198.56295047415378,5.009527284644226E-6,4.4507468283403167E-4
93,198.5328299299356,4.987614379862027E-6,4.500622972138937E-4
94,198.50210207636772,4.943898172722709E-6,4.550061953866164E-4
95,198.47100448026816,4.904546978385159E-6,4.5991074236500156E-4
96,198.43975858170407,4.8820723140084826E-6,4.6479281467901E-4
97,198.40862999080142,4.842088972223286E-6,4.696349036512333E-4
98,198.37731105440363,4.8415153015308E-6,4.7447641895276407E-4
99,198.34587063954515,4.821107403934323E-6,4.792975263566984E-4
100,198.31422919563659,4.80869733385862E-6,4.84106223690557E-4
101,198.28188563004636,4.818084078592735E-6,4.889243077691497E-4
102,198.24895377115186,4.8625825791605765E-6,4.937868903483103E-4
103,198.21510207831287,4.886467126746216E-6,4.986733574750565E-4
104,198.1802579111796,4.945454182912121E-6,5.036188116579686E-4
105,198.14475052404154,4.927518713461213E-6,5.085463303714299E-4
106,198.10822739390787,4.991763934363843E-6,5.135380943057938E-4
107,198.07124386930954,4.990760053103147E-6,5.185288543588969E-4
108,198.03420763620747,5.007085166805284E-6,5.235359395257021E-4
109,197.9965439907478,5.071846292818981E-6,5.286077858185211E-4
110,197.95796474933093,5.122720028005533E-6,5.337305058465266E-4
111,197.919176863385,5.137445884338073E-6,5.388679517308646E-4
112,197.87984527705896,5.1309400050810895E-6,5.439988917359457E-4
113,197.84033326208623,5.103055437519737E-6,5.491019471734654E-4
114,197.8010138907836,5.035297801170447E-6,5.541372449746359E-4
115,197.76128490304495,5.048323751757028E-6,5.591855687263929E-4
116,197.72116468172115,5.008295170111477E-6,5.641938638965044E-4
117,197.68120734783878,4.978259626999918E-6,5.691721235235043E-4
118,197.64115096869315,4.977625150166832E-6,5.741497486736712E-4
119,197.60147380381747,4.89637477454596E-6,5.790461234482171E-4
120,197.56200615719365,4.895628053792187E-6,5.839417515020093E-4
121,197.52202391912655,4.90608143681996E-6,5.888478329388293E-4
122,197.48218538194575,4.8752552680999335E-6,5.937230882069293E-4
123,197.44178297289878,4.8864433054985765E-6,5.986095315124279E-4
124,197.40081955733035,4.877246392069245E-6,6.034867779044971E-4
125,197.35972374753237,4.8438229308256005E-6,6.083306008353227E-4
126,197.31934523287785,4.798037718568313E-6,6.13128638553891E-4
127,197.27990882955743,4.779289869791364E-6,6.179079284236823E-4
128,197.24047300688545,4.7515711805661336E-6,6.226594996042485E-4
129,197.20060611807426,4.717128205268983E-6,6.273766278095175E-4
130,197.16086363308867,4.691139831523293E-6,6.320677676410408E-4
131,197.12079281242046,4.713111802950122E-6,6.367808794439909E-4
132,197.08065715399414,4.714596209401568E-6,6.414954756533925E-4
133,197.04074112028604,4.720486256558072E-6,6.462159619099506E-4
134,197.000513615191,4.7210880624941485E-6,6.509370499724447E-4
135,196.95986049393912,4.703610564157596E-6,6.556406605366023E-4
136,196.91854710963008,4.740671240220045E-6,6.603813317768223E-4
137,196.8763253867313,4.738788815712976E-6,6.651201205925353E-4
138,196.8336820739076,4.708263252036362E-6,6.698283838445716E-4
139,196.7911957729284,4.659616713556435E-6,6.744880005581281E-4
140,196.7480178005945,4.670051858758591E-6,6.791580524168867E-4
141,196.70387670792766,4.6482887749599655E-6,6.838063411918467E-4
142,196.65934528123427,4.639138398544282E-6,6.88445479590391E-4
143,196.6148829632235,4.56028648082525E-6,6.930057660712162E-4
144,196.57112093879292,4.522688798933914E-6,6.975284548701501E-4
145,196.52643559778392,4.566933269816689E-6,7.020953881399668E-4
146,196.48216085064652,4.546752161146773E-6,7.066421403011136E-4
147,196.4379519296793,4.52414876044686E-6,7.111662890615604E-4
148,196.39365518466786,4.498243172482763E-6,7.156645322340432E-4
149,196.34939186815973,4.4938652329691585E-6,7.201583974670124E-4
150,196.30462938666372,4.4746952482636824E-6,7.24633092715276E-4
151,196.2599177235211,4.462583321851618E-6,7.290956760371277E-4
152,196.2143812308342,4.526318746184445E-6,7.336219947833121E-4
153,196.16892128639813,4.4834414693532285E-6,7.381054362526654E-4
154,196.12323175086857,4.50248179894661E-6,7.42607918051612E-4
155,196.07777759174064,4.530134430861964E-6,7.471380524824739E-4
156,196.03123807053365,4.6010529791307926E-6,7.517391054616047E-4
157,195.98500946374884,4.574137085915319E-6,7.5631324254752E-4
158,195.93816180998832,4.5824167707643795E-6,7.608956593182845E-4
159,195.89172486385877,4.58269328503547E-6,7.654783526033199E-4
160,195.8454888866798,4.578282937063358E-6,7.700566355403833E-4
161,195.7992283031543,4.523390097610378E-6,7.745800256379937E-4
162,195.7524952894897,4.50269103578813E-6,7.790827166737818E-4
163,195.70552896160893,4.522013355277491E-6,7.836047300290593E-4
164,195.65865938861836,4.5121122250231055E-6,7.881168422540824E-4
165,195.6112945915429,4.57359488160357E-6,7.926904371356859E-4
166,195.56340457024268,4.572505305549571E-6,7.972629424412355E-4
167,195.5153926228519,4.585448385423501E-6,8.01848390826659E-4
168,195.46773692234197,4.51918763339719E-6,8.063675784600562E-4
169,195.41984849423264,4.479812865986533E-6,8.108473913260427E-4
170,195.3717198271845,4.484054468056919E-6,8.153314457940996E-4
171,195.3236100175486,4.494318916973246E-6,8.198257647110728E-4
172,195.2754503167161,4.451156274532194E-6,8.24276920985605E-4
173,195.22631220448625,4.4959827060683255E-6,8.287729036916733E-4
174,195.17590362092793,4.575115937171378E-6,8.333480196288447E-4
175,195.12513640028797,4.508913674331337E-6,8.378569333031761E-4
176,195.07374045134728,4.532342645312754E-6,8.423892759484888E-4
177,195.02269342684576,4.495896703382862E-6,8.468851726518717E-4
178,194.9711520692498,4.527325465341241E-6,8.514124981172129E-4
179,194.9193429275998,4.538765508288419E-6,8.559512636255013E-4
180,194.86689871392667,4.584793152472474E-6,8.605360567779738E-4
181,194.8142685847741,4.577576784201693E-6,8.651136335621754E-4
182,194.76082418583988,4.654499528103943E-6,8.697681330902794E-4
183,194.70678903394494,4.6780370848244055E-6,8.744461701751038E-4
184,194.6532144110122,4.673346428337938E-6,8.791195166034417E-4
185,194.59999942117682,4.700579378347607E-6,8.838200959817894E-4
186,194.5469643586943,4.717481542421525E-6,8.885375775242109E-4
187,194.49321731096205,4.684753605839317E-6,8.932223311300502E-4
188,194.4399971098005,4.670047688478405E-6,8.978923788185286E-4
189,194.38639776575187,4.746277064968747E-6,9.026386558834973E-4
190,194.3333782405187,4.6980309451239816E-6,9.073366868286213E-4
191,194.2807901147911,4.680282148012722E-6,9.12016968976634E-4
192,194.22870432446044,4.649506381547881E-6,9.16666475358182E-4
193,194.17563771086637,4.680360689503574E-6,9.213468360476856E-4
194,194.122269004888,4.694280901918076E-6,9.260411169496037E-4
195,194.06898735743687,4.672137087989634E-6,9.307132540375934E-4
196,194.01468060199835,4.679086204169699E-6,9.353923402417631E-4
197,193.96084874543965,4.675930070656466E-6,9.400682703124195E-4
198,193.90656324552265,4.719110858647378E-6,9.447873811710669E-4
199,193.8526052671664,4.7386104547537135E-6,9.495259916258206E-4
200,193.79826168859464,4.746747513031853E-6,9.542727391388525E-4
201,193.744289732696,4.701790834696583E-6,9.589745299735491E-4
202,193.69125682796928,4.65411190791476E-6,9.636286418814639E-4
203,193.63756424518425,4.728681908561393E-6,9.683573237900253E-4
204,193.58343671189587,4.747722897086291E-6,9.731050466871116E-4
205,193.52833671979894,4.719448612944373E-6,9.77824495300056E-4
206,193.47241119209372,4.745036559094222E-6,9.825695318591502E-4
207,193.41662672222873,4.704666202743744E-6,9.87274198061894E-4
208,193.36099229406804,4.6778137240187115E-6,9.919520117859127E-4
209,193.3045118354965,4.7263704410974715E-6,9.966783822270102E-4
210,193.24853102955927,4.747666276547769E-6,0.001001426048503558
211,193.19333560495738,4.629991949134389E-6,0.0010060560404526924
212,193.13863882499672,4.614001509522085E-6,0.0010106700419622145
213,193.08354378520235,4.652006359121164E-6,0.0010153220483213356
214,193.02862626753915,4.6118505559446875E-6,0.0010199338988772803
215,192.97324574892428,4.629374769805661E-6,0.001024563273647086
216,192.91777026839992,4.619881616506225E-6,0.001029183155263592
217,192.86338345605924,4.6077127802042825E-6,0.0010337908680437963
218,192.80890002185384,4.617766078872745E-6,0.001038408634122669
219,192.75375003516774,4.622200414045873E-6,0.001043030834536715
220,192.69847647813057,4.58578585262143E-6,0.0010476166203893364
221,192.6427426502406,4.586942824172134E-6,0.0010522035632135084
222,192.58610639410145,4.591376843932584E-6,0.001056794940057441
223,192.52960801014243,4.598684649375856E-6,0.0010613936247068168
224,192.47339025118737,4.6267092960166314E-6,0.0010660203340028334
225,192.4171608961216,4.650829472149909E-6,0.0010706711634749834
226,192.36099159188353,4.648309985428172E-6,0.0010753194734604116
227,192.30429684503028,4.641798459410959E-6,0.0010799612719198225
228,192.2475771172825,4.616390504101938E-6,0.0010845776624239245
229,192.19093865467164,4.594848402266841E-6,0.0010891725108261913
230,192.13382353210204,4.612003472353232E-6,0.0010937845142985445
231,192.0766517147809,4.608869182529584E-6,0.0010983933834810742
232,192.01952853653503,4.5617906134787445E-6,0.0011029551740945529
233,191.96125604310592,4.543586851165905E-6,0.0011074987609457187
234,191.90122706971363,4.6412095704052E-6,0.001112139970516124
235,191.8409659153536,4.635412838818912E-6,0.0011167753833549428
236,191.77942554506458,4.679953671469706E-6,0.0011214553370264126
237,191.71844278743254,4.7169650136611955E-6,0.0011261723020400737
238,191.65638247726255,4.704815800607047E-6,0.0011308771178406808
239,191.5941887249715,4.663461859770818E-6,0.0011355405797004515
240,191.5321916606541,4.661496777614264E-6,0.0011402020764780657
241,191.46833290951255,4.693262878134989E-6,0.0011448953393562006
242,191.4048308816681,4.659516017981035E-6,0.0011495548553741818
243,191.34068003757972,4.6615931683779675E-6,0.0011542164485425597
244,191.27585701791304,4.682398243309705E-6,0.0011588988467858693
245,191.209729634991,4.71417652239689E-6,0.001163613023308266
246,191.14257131642904,4.752022558426932E-6,0.001168365045866693
247,191.0746814836359,4.738016690196598E-6,0.0011731030625568896
248,191.0070126673116,4.714454812197264E-6,0.0011778175173690869
249,190.93976787062766,4.729400189729379E-6,0.0011825469175588163
250,190.87176632991878,4.728542424830668E-6,0.0011872754599836469
251,190.80354173193822,4.7512437528153165E-6,0.0011920267037364622
252,190.73526031327643,4.753186475836671E-6,0.0011967798902122989
253,190.66616864006372,4.791562187741294E-6,0.0012015714524000402
254,190.59784146630852,4.742918956793645E-6,0.0012063143713568337
255,190.5304752491522,4.692947754781754E-6,0.0012110073191116154
256,190.46280577367116,4.66384987618421E-6,0.0012156711689877996
257,190.39457812076702,4.648176266775256E-6,0.0012203193452545748
258,190.3255296872162,4.6617524286086345E-6,0.0012249810976831834
259,190.2560596970146,4.677972992865806E-6,0.0012296590706760491
260,190.18666079928934,4.659578331217058E-6,0.0012343186490072662
261,190.11661602083362,4.720217929287499E-6,0.0012390388669365536
262,190.0468144189821,4.680670838461619E-6,0.0012437195377750152
263,189.9755187924589,4.69694900362066E-6,0.0012484164867786359
264,189.90451185893536,4.666188970599546E-6,0.0012530826757492354
265,189.83258157152437,4.643846314552638E-6,0.001257726522063788
266,189.76087161393718,4.645558505660908E-6,0.001262372080569449
267,189.69024785435968,4.611722326998327E-6,0.0012669838028964474
268,189.61892955447317,4.592911986319865E-6,0.0012715767148827673
269,189.54760994023033,4.569076943888698E-6,0.001276145791826656
270,189.476700150622,4.5612413333084415E-6,0.0012807070331599644
271,189.4083023509221,4.5548974322155455E-6,0.00128526193059218
272,189.34036098229964,4.550259578911281E-6,0.001289812190171091
273,189.27217987008132,4.570883400412438E-6,0.0012943830735715036
274,189.20442857056236,4.554772204976029E-6,0.0012989378457764797
275,189.1378114897472,4.5055804280473E-6,0.001303443426204527
276,189.07258854715633,4.441813619609834E-6,0.0013078852398241368
277,189.00831489313532,4.410716610599392E-6,0.0013122959564347363
278,188.94313461254166,4.468640951893417E-6,0.0013167645973866297
279,188.8793061945833,4.455081253239208E-6,0.001321219678639869
280,188.81511674573858,4.475801714958947E-6,0.001325695480354828
281,188.751882812688,4.493267703754266E-6,0.0013301887480585823
282,188.6888588873239,4.480808752536681E-6,0.0013346695568111188
283,188.6256637610248,4.4698077630076735E-6,0.0013391393645741266
284,188.56318477496566,4.4578457246554995E-6,0.001343597210298782
285,188.4992180733218,4.512359841077407E-6,0.0013481095701398595
286,188.43642959885653,4.464681075593541E-6,0.001352574251215453
287,188.37323729724602,4.499396425976786E-6,0.0013570736476414297
288,188.3105570661346,4.5010933524024664E-6,0.0013615747409938322
289,188.24745004711076,4.490476163434306E-6,0.0013660652171572664
290,188.1847142203045,4.393557303805229E-6,0.0013704587744610716
291,188.12088915855654,4.396742725331972E-6,0.0013748555171864036
292,188.05914148236184,4.367513775839627E-6,0.0013792230309622434
293,187.99785138578875,4.385172290658579E-6,0.0013836082032529019
294,187.9362109965306,4.386944266133173E-6,0.0013879951475190351
295,187.87378897788028,4.386843800375798E-6,0.001392381991319411
296,187.81103190161284,4.4085897950740594E-6,0.001396790581114485
297,187.74848766380867,4.44967387103701E-6,0.001401240254985522
298,187.68577351116258,4.46392521639602E-6,0.001405704180201918
299,187.62255345287093,4.468230167818884E-6,0.001410172410369737
300,187.55923293458702,4.5021241479238335E-6,0.001414674534517661
301,187.49489068130964,4.499847135608893E-6,0.0014191743816532698
302,187.43150805877377,4.44818763856915E-6,0.001423622569291839
303,187.36833502240592,4.4463596067236886E-6,0.0014280689288985627
304,187.30277519037725,4.456767584473093E-6,0.0014325256964830358
305,187.2372697191231,4.466149528286721E-6,0.0014369918460113225
306,187.17054605867799,4.481040415457903E-6,0.0014414728864267804
307,187.10494441558072,4.408807194053031E-6,0.0014458816936208333
308,187.03885904979433,4.392399046238065E-6,0.0014502740926670714
