#t,ESS,tempDiff,temp
0,100.00000000000006,0.0,0.0
1,99.99899286013199,6.043905040488052E-7,6.043905040488052E-7
2,99.99595522123919,6.057112530867035E-7,1.2101017571355087E-6
3,99.99085819068448,6.090110046100132E-7,1.819112761745522E-6
4,99.98360919117707,6.147611498658535E-7,2.4338739116113757E-6
5,99.97431248168715,6.221948213110958E-7,3.0560687329224713E-6
6,99.96313900473446,6.169250507396098E-7,3.672993783662081E-6
7,99.95014213191774,6.170168466330089E-7,4.29001063029509E-6
8,99.93539854598012,6.161416695188379E-7,4.906152299813928E-6
9,99.91902514815193,6.072473424897966E-7,5.513399642303725E-6
10,99.9009447158661,6.071626632641618E-7,6.120562305567887E-6
11,99.88103142172457,6.056334688755282E-7,6.726195774443415E-6
12,99.8589893501569,6.067900440934754E-7,7.332985818536891E-6
13,99.83501753390105,6.073132531628403E-7,7.940299071699731E-6
14,99.80950016750943,6.056160929066304E-7,8.545915164606362E-6
15,99.78228343072486,6.056378729074077E-7,9.15155303751377E-6
16,99.75348985644696,5.974443152431321E-7,9.748997352756903E-6
17,99.7228789880913,6.026323637573363E-7,1.0351629716514239E-5
18,99.69002543690141,6.059140380592781E-7,1.0957543754573516E-5
19,99.65547956449434,6.088929640732998E-7,1.1566436718646817E-5
20,99.6193655415593,6.102528799781953E-7,1.2176689598625012E-5
21,99.58196153260072,6.095013821580668E-7,1.2786190980783079E-5
22,99.54301532658667,6.110343347483916E-7,1.339722531553147E-5
23,99.50295891122735,6.0743909325258E-7,1.400466440878405E-5
24,99.46163619082144,6.114410669038251E-7,1.4616105475687875E-5
25,99.4179816102751,6.160929936611524E-7,1.5232198469349027E-5
26,99.37202520398262,6.182718124858981E-7,1.5850470281834924E-5
27,99.32469257239379,6.158677300962128E-7,1.6466338011931136E-5
28,99.2756514236166,6.109977384574959E-7,1.707733575038863E-5
29,99.22399426700325,6.232372789759104E-7,1.7700573029364543E-5
30,99.17070788578714,6.202837101638E-7,1.832085673952834E-5
31,99.11414621952409,6.236938655094815E-7,1.894455060503782E-5
32,99.05662838227154,6.221357918338633E-7,1.9566686396871685E-5
33,98.99757165949158,6.273261044202426E-7,2.019401250129193E-5
34,98.93735506356735,6.246213077963541E-7,2.0818633809088285E-5
35,98.87519364234988,6.310407585996186E-7,2.1449674567687903E-5
36,98.8117146719356,6.291690731788272E-7,2.207884364086673E-5
37,98.7455188378441,6.34918645704851E-7,2.271376228657158E-5
38,98.67847019308172,6.277762827295229E-7,2.3341538569301104E-5
39,98.6105409156133,6.277666697617574E-7,2.396930523906286E-5
40,98.54075732644712,6.314535435965777E-7,2.4600758782659438E-5
41,98.4701136416842,6.382617025807083E-7,2.5239020485240145E-5
42,98.39874763806971,6.28252402001369E-7,2.5867272887241515E-5
43,98.32516029106284,6.301971151662521E-7,2.649747000240777E-5
44,98.24961747858187,6.267901597273635E-7,2.712426016213513E-5
45,98.17230909022591,6.355776208453795E-7,2.775983778298051E-5
46,98.09353579204539,6.390364330175898E-7,2.83988742159981E-5
47,98.0154039869106,6.312983228954273E-7,2.9030172538893527E-5
48,97.93716431863675,6.264914754186065E-7,2.9656664014312134E-5
49,97.85716020359494,6.241924668651119E-7,3.0280856481177245E-5
50,97.77713624484018,6.211059202975714E-7,3.090196240147482E-5
51,97.69646773435585,6.232008773457744E-7,3.152516327882059E-5
52,97.61490568669343,6.261873248755745E-7,3.2151350603696165E-5
53,97.531832109857,6.296697546862287E-7,3.2781020358382396E-5
54,97.44681461575423,6.346522053496799E-7,3.3415672563732074E-5
55,97.3621960006994,6.218810851742908E-7,3.403755364890636E-5
56,97.27744606361563,6.235849354931298E-7,3.4661138584399496E-5
57,97.1924662789888,6.199119317398543E-7,3.528105051613935E-5
58,97.10665765058212,6.178049784141029E-7,3.5898855494553454E-5
59,97.02012605901137,6.130641396578644E-7,3.6511919634211315E-5
60,96.93492667759148,6.064854910550788E-7,3.7118405125266395E-5
61,96.84970210299878,6.013808478313734E-7,3.771978597309777E-5
62,96.7636290511129,6.018225865797634E-7,3.832160855967753E-5
63,96.67835503928605,5.930268277843964E-7,3.891463538746193E-5
64,96.59167287225307,5.983455331064795E-7,3.951298092056841E-5
65,96.50428757256039,5.986087952816329E-7,4.011158971585004E-5
66,96.41381659299138,6.0063170264105E-7,4.071222141849109E-5
67,96.32244342535388,5.969209932551711E-7,4.130914241174626E-5
68,96.23028333594291,6.00687033821953E-7,4.190982944556821E-5
69,96.13586852503714,6.094386921545757E-7,4.251926813772279E-5
70,96.04077958856803,6.198610298804853E-7,4.313912916760328E-5
71,95.94323918593783,6.162380076416278E-7,4.3755367175244904E-5
72,95.84508519181536,6.139499864816781E-7,4.4369317161726584E-5
73,95.74480337538425,6.204890487967586E-7,4.498980621052334E-5
74,95.64437935399557,6.185290635143626E-7,4.56083352740377E-5
75,95.54189434513636,6.225786236386914E-7,4.623091389767639E-5
76,95.43880762591607,6.307985841707344E-7,4.6861712481847125E-5
77,95.33608685258845,6.317316284304083E-7,4.749344411027753E-5
78,95.23215337398042,6.311229171201363E-7,4.812456702739767E-5
79,95.1290978943022,6.231634739431602E-7,4.874773050134083E-5
80,95.02739200524344,6.225484578085177E-7,4.937027895914934E-5
81,94.92691032991891,6.120368330897338E-7,4.9982315792239076E-5
82,94.82636077912413,6.090971053830186E-7,5.0591412897622096E-5
83,94.72562948792422,6.143492179189685E-7,5.120576211554107E-5
84,94.62437458995852,6.165798787880501E-7,5.1822341994329116E-5
85,94.52140353332926,6.163917177954632E-7,5.243873371212458E-5
86,94.41598175052803,6.21720044410717E-7,5.30604537565353E-5
87,94.30991074677348,6.272373860654643E-7,5.368769114260076E-5
88,94.20275082460391,6.278755936705519E-7,5.431556673627131E-5
89,94.09562458750796,6.327547319132177E-7,5.4948321468184534E-5
90,93.98892475810298,6.217053469265718E-7,5.5570026815111104E-5
91,93.88284077618832,6.133362050110557E-7,5.618336302012216E-5
92,93.77584890880274,6.129156843382735E-7,5.679627870446043E-5
93,93.66564137840204,6.176144552372135E-7,5.7413893159697644E-5
94,93.55588728379048,6.149415387750075E-7,5.8028834698472654E-5
95,93.44567708246663,6.139719056683769E-7,5.864280660414103E-5
96,93.33357188981803,6.075954791637866E-7,5.925040208330481E-5
97,93.21984509411556,6.109357929619544E-7,5.986133787626677E-5
98,93.1082474021844,6.074757141099558E-7,6.046881359037672E-5
99,92.99768478635121,6.010385116086251E-7,6.106985210198535E-5
100,92.8857330629391,6.152526476770656E-7,6.168510474966241E-5
101,92.77416965248281,6.134525966254647E-7,6.229855734628787E-5
102,92.66140007270616,6.181674906360181E-7,6.291672483692389E-5
103,92.54669905822686,6.242189131092343E-7,6.354094375003312E-5
104,92.43065572802163,6.216630679745267E-7,6.416260681800765E-5
105,92.3128061984936,6.262462245652708E-7,6.478885304257293E-5
106,92.1944034413963,6.202465713374948E-7,6.540909961391042E-5
107,92.07511600562036,6.311010909176937E-7,6.604020070482811E-5
108,91.95235881027757,6.354679473633748E-7,6.667566865219148E-5
109,91.82859451229884,6.305043391555195E-7,6.7306172991347E-5
110,91.70817446442659,6.141940912777607E-7,6.792036708262477E-5
111,91.58720362603064,6.105230880735889E-7,6.853089017069835E-5
112,91.46480752381295,6.155334992927283E-7,6.914642366999108E-5
113,91.3419105923041,6.146797371228915E-7,6.976110340711397E-5
114,91.21908822717015,6.205557126886609E-7,7.038165911980263E-5
115,91.09525030607017,6.206863843232373E-7,7.100234550412587E-5
116,90.97542261216839,6.136502715056429E-7,7.161599577563152E-5
117,90.85272575803513,6.259519457866168E-7,7.224194772141814E-5
118,90.73577232353121,6.093275363222592E-7,7.28512752577404E-5
119,90.61739860797704,6.132749936011092E-7,7.346455025134151E-5
120,90.50057959939524,6.153100381731801E-7,7.407986028951468E-5
121,90.38336643020716,6.100460726522071E-7,7.46899063621669E-5
122,90.26744847290564,6.057674075113881E-7,7.529567376967828E-5
123,90.15075932650569,6.031491872036984E-7,7.589882295688197E-5
124,90.03388155400333,6.075372910883328E-7,7.65063602479703E-5
125,89.91499620736046,6.208584127528548E-7,7.712721866072316E-5
126,89.79431610874296,6.228681436761592E-7,7.775008680439933E-5
127,89.67217848681193,6.191382092628748E-7,7.83692250136622E-5
128,89.55166316614874,6.147118516938246E-7,7.898393686535602E-5
129,89.43012018609619,6.141855857938798E-7,7.959812245114989E-5
130,89.30713655102657,6.050443126367018E-7,8.02031667637866E-5
131,89.18344095165425,6.055240596305106E-7,8.080869082341711E-5
132,89.05570864924847,6.137027825529434E-7,8.142239360597005E-5
133,88.92632243640894,6.197743128245014E-7,8.204216791879455E-5
134,88.79642316656499,6.156123435521109E-7,8.265778026234665E-5
135,88.66423338293275,6.20892796897826E-7,8.327867305924449E-5
136,88.53687515063417,6.079466105455481E-7,8.388661966979004E-5
137,88.40824428705766,6.045957259429514E-7,8.449121539573299E-5
138,88.27947453629206,6.071435964949183E-7,8.50983589922279E-5
139,88.14909724152446,6.089161990603298E-7,8.570727519128824E-5
140,88.01753495588972,6.08914004079003E-7,8.631618919536724E-5
141,87.8863198986654,6.027835358184706E-7,8.69189727311857E-5
142,87.75522761705753,6.033407772151718E-7,8.752231350840087E-5
143,87.62379628090808,6.040058779342386E-7,8.812631938633512E-5
144,87.49212165080905,5.997952864337439E-7,8.872611467276886E-5
145,87.35833668176109,6.001541079422289E-7,8.932626878071109E-5
146,87.22642252687513,5.916433483194042E-7,8.99179121290305E-5
147,87.09423552394512,5.962643702650338E-7,9.051417649929553E-5
148,86.96198533684237,5.964807661065699E-7,9.11106572654021E-5
149,86.82720897998479,5.903724028759012E-7,9.1701029668278E-5
150,86.6932664432734,5.810355527455403E-7,9.228206522102354E-5
151,86.56217879793113,5.852071680445223E-7,9.286727238906806E-5
152,86.4341007675826,5.832721240760372E-7,9.34505445131441E-5
153,86.30607949955413,5.801677703097826E-7,9.403071228345388E-5
154,86.18001603427626,5.808284257296249E-7,9.46115407091835E-5
155,86.05245985149945,5.777734398873944E-7,9.518931414907089E-5
156,85.92307793081616,5.81184760238075E-7,9.577049890930897E-5
157,85.7936887949985,5.765436363612619E-7,9.634704254567022E-5
158,85.66096253336882,5.696561769158451E-7,9.691669872258607E-5
159,85.52947076279756,5.623580741910272E-7,9.74790567967771E-5
160,85.39438814475132,5.666409773775483E-7,9.804569777415465E-5
161,85.26197276264776,5.657418644670456E-7,9.861143963862169E-5
162,85.13136499666211,5.638360400357946E-7,9.917527567865749E-5
163,84.99525436104976,5.672764614182773E-7,9.974255214007576E-5
164,84.85874204726022,5.686582389921285E-7,1.003112103790679E-4
165,84.72097009578818,5.695429220930745E-7,1.0088075330116097E-4
166,84.58551361875017,5.788249461680048E-7,1.0145957824732899E-4
167,84.44920428498052,5.792020650566285E-7,1.0203878031238562E-4
168,84.3142420766142,5.749217969778594E-7,1.0261370210936348E-4
169,84.18055465062561,5.669218767934714E-7,1.0318062398615695E-4
170,84.04190415492329,5.791384803394651E-7,1.0375976246649641E-4
171,83.9035724350706,5.797289240616784E-7,1.0433949139055809E-4
172,83.76578219695654,5.812304039046617E-7,1.0492072179446276E-4
173,83.62526889332808,5.893514238984916E-7,1.0551007321836125E-4
174,83.48519585986203,5.827025491153958E-7,1.0609277576747665E-4
175,83.34355553480654,5.93373176327697E-7,1.0668614894380435E-4
176,83.20600701593362,5.914797000433973E-7,1.0727762864384775E-4
177,83.06768888722625,5.918824196767761E-7,1.0786951106352453E-4
178,82.92767390226079,5.964697948112686E-7,1.084659808583358E-4
179,82.79039242768557,5.957594195672865E-7,1.0906174027790308E-4
180,82.65343005575008,5.952051541287045E-7,1.0965694543203178E-4
181,82.5170639440762,5.918627168974126E-7,1.102488081489292E-4
182,82.38228380579136,5.931159648474937E-7,1.1084192411377669E-4
183,82.25187128596369,5.880600120160528E-7,1.1142998412579275E-4
184,82.12098237930647,5.894408356583464E-7,1.1201942496145109E-4
185,81.98977802837473,5.974242411887604E-7,1.1261684920263986E-4
186,81.85420279849313,5.968946780698212E-7,1.1321374388070968E-4
187,81.71340546704747,6.014695403046484E-7,1.1381521342101432E-4
188,81.57117970117149,6.051998675567071E-7,1.1442041328857103E-4
189,81.43258577165317,5.954536797040097E-7,1.1501586696827504E-4
190,81.29392043278699,5.912571214649274E-7,1.1560712408973997E-4
191,81.15324542505262,5.956537599822314E-7,1.162027778497222E-4
192,81.01831673243393,5.940691657284941E-7,1.167968470154507E-4
193,80.88299011087778,5.92162670671394E-7,1.1738900968612209E-4
194,80.74795315160597,5.895039712787667E-7,1.1797851365740085E-4
195,80.61285403938558,5.878717241480724E-7,1.1856638538154891E-4
196,80.47420424342147,5.911142658571703E-7,1.1915749964740609E-4
197,80.33385091753966,5.981068689873154E-7,1.197556065163934E-4
198,80.19372359905806,5.909417339267093E-7,1.2034654825032012E-4
199,80.05508430048542,5.824122732559475E-7,1.2092896052357606E-4
200,79.91530823631923,5.845046743508494E-7,1.215134651979269E-4
201,79.77277677753582,5.954669341900537E-7,1.2210893213211697E-4
202,79.62384228525767,6.096961197689405E-7,1.227186282518859E-4
203,79.47540052155314,6.166339788640404E-7,1.2333526223074994E-4
204,79.32851691159586,6.137224412332671E-7,1.2394898467198322E-4
205,79.17953524380711,6.181050035062158E-7,1.2456708967548943E-4
206,79.03402075656248,6.129167737456947E-7,1.2518000644923513E-4
207,78.87981117065435,6.203821451040609E-7,1.2580038859433918E-4
208,78.7252211831602,6.185223115205661E-7,1.2641891090585974E-4
209,78.57304953482405,6.180169785155022E-7,1.2703692788437523E-4
210,78.4355659846954,6.214572020765445E-7,1.2765838508645177E-4
211,78.29429168265807,6.160945109671098E-7,1.2827447959741888E-4
212,78.15542997689174,6.120991146713161E-7,1.288865787120902E-4
213,78.01408318778108,6.073272381068887E-7,1.2949390595019708E-4
214,77.86126111618492,6.197674241107636E-7,1.3011367337430784E-4
215,77.7101403115021,6.089157024961359E-7,1.30722589076804E-4
216,77.55982871860658,5.993774295534466E-7,1.3132196650635745E-4
217,77.41215074478164,5.853550134786196E-7,1.3190732151983607E-4
218,77.26406949030786,5.801897663186629E-7,1.3248751128615472E-4
219,77.11799545862009,5.808919172829532E-7,1.3306840320343767E-4
220,76.97578553032672,5.863176221091663E-7,1.3365472082554683E-4
221,76.83193102585373,5.896369355929956E-7,1.3424435776113983E-4
222,76.68627107063699,5.95066589898208E-7,1.3483942435103805E-4
223,76.54235200719032,5.902867021552919E-7,1.3542971105319333E-4
224,76.40007429009115,5.811815612089777E-7,1.360108926144023E-4
225,76.25783249752222,5.896202690176078E-7,1.366005128834199E-4
226,76.11849936665196,6.056330586300285E-7,1.3720614594204994E-4
227,75.988635072854,6.050681464824652E-7,1.378112140885324E-4
228,75.86129533370477,6.089341801231246E-7,1.3842014826865554E-4
229,75.72649498223068,6.091244339814472E-7,1.39029272702637E-4
230,75.58867225642571,6.120750173838359E-7,1.3964134772002083E-4
231,75.44671231948922,6.115483885044746E-7,1.402528961085253E-4
232,75.3049887190505,6.138544911890378E-7,1.4086675059971434E-4
233,75.16338204648358,6.173418952965977E-7,1.4148409249501093E-4
234,75.02055127986756,6.105164389946527E-7,1.420946089340056E-4
235,74.87759596388895,6.168936586013644E-7,1.4271150259260695E-4
236,74.73519988518049,6.052375095316008E-7,1.4331674010213856E-4
237,74.59696392775967,6.003709090692981E-7,1.4391711101120785E-4
238,74.45730266337854,5.987876800212196E-7,1.4451589869122905E-4
239,74.31394725906073,6.064234114848349E-7,1.4512232210271388E-4
240,74.17416673209254,6.039064220732284E-7,1.457262285247871E-4
241,74.03455524383094,5.922287433665685E-7,1.4631845726815367E-4
242,73.89531237598402,5.981816029004288E-7,1.469166388710541E-4
243,73.75513052835247,5.999241353912129E-7,1.475165630064453E-4
244,73.61435213390823,5.969501964596899E-7,1.48113513202905E-4
245,73.46392212084507,6.078962104136566E-7,1.4872140941331864E-4
246,73.31686817854595,6.064406645343116E-7,1.4932785007785296E-4
247,73.1680894506685,6.122425025949099E-7,1.4994009258044788E-4
248,73.01558030032461,6.223872361120119E-7,1.5056247981655988E-4
249,72.86884333347594,6.187883001627406E-7,1.5118126811672263E-4
250,72.71618243792727,6.145964420758186E-7,1.5179586455879845E-4
251,72.56062901951556,6.185443273070056E-7,1.5241440888610544E-4
252,72.40671589337758,6.107708377364206E-7,1.5302517972384187E-4
253,72.25094951990741,6.102865559878824E-7,1.5363546627982974E-4
254,72.0980472713961,6.007138854467418E-7,1.5423618016527647E-4
255,71.94326111028374,6.109261747670302E-7,1.5484710634004352E-4
256,71.7861790018404,6.139862014459741E-7,1.554610925414895E-4
257,71.62883943545619,6.152582026652742E-7,1.5607635074415478E-4
258,71.46754271974703,6.23816491230916E-7,1.5670016723538568E-4
259,71.30950114434187,6.173760563688484E-7,1.5731754329175452E-4
260,71.15192232985129,6.258647147896237E-7,1.5794340800654415E-4
261,70.98035254879566,6.261894243226438E-7,1.585695974308668E-4
262,70.80429514742754,6.299054675909603E-7,1.5919950289845777E-4
263,70.6280265097938,6.378593550895334E-7,1.598373622535473E-4
264,70.45448183848139,6.386317012169809E-7,1.604759939547643E-4
265,70.28405738473167,6.413113771770878E-7,1.6111730533194138E-4
266,70.11396532729374,6.373283783250801E-7,1.6175463371026646E-4
267,69.94447852766953,6.480482287616999E-7,1.6240268193902816E-4
268,69.77611807749722,6.432140694307305E-7,1.630458960084589E-4
269,69.61002882071593,6.315438464916267E-7,1.6367743985495052E-4
270,69.43966710325103,6.350448912787285E-7,1.6431248474622925E-4
271,69.26697833002335,6.377523995765899E-7,1.6495023714580584E-4
272,69.09641921494789,6.350909451557318E-7,1.6558532809096157E-4
273,68.91744410690937,6.286360181206344E-7,1.662139641090822E-4
274,68.73812733672453,6.379270325811666E-7,1.6685189114166337E-4
275,68.56296691038058,6.412949942354847E-7,1.6749318613589885E-4
276,68.39252161635571,6.399799419924549E-7,1.6813316607789132E-4
277,68.21733272396644,6.47237845126946E-7,1.6878040392301826E-4
278,68.0385045925466,6.504479964174589E-7,1.6943085191943572E-4
279,67.86230640459856,6.474161929793726E-7,1.700782681124151E-4
280,67.68550275852675,6.396751376219976E-7,1.707179432500371E-4
281,67.51215343191579,6.441163164344004E-7,1.713620595664715E-4
282,67.34285709971155,6.394659360040308E-7,1.7200152550247554E-4
283,67.17515062509752,6.268569434324666E-7,1.72628382445908E-4
284,67.00643271837336,6.329204794012351E-7,1.7326130292530923E-4
285,66.83229228983699,6.444728607819867E-7,1.7390577578609123E-4
286,66.65803953616788,6.489172245598688E-7,1.745546930106511E-4
287,66.48774552631575,6.346242661776609E-7,1.7518931727682877E-4
288,66.31301370216556,6.426783060893445E-7,1.7583199558291813E-4
289,66.14309661638517,6.333416167801899E-7,1.764653371996983E-4
290,65.97705729101845,6.375693990739736E-7,1.771029065987723E-4
291,65.81152512359748,6.529463534336379E-7,1.7775585295220592E-4
292,65.63989735913611,6.555478609910914E-7,1.7841140081319701E-4
293,65.47160195910638,6.507806537190599E-7,1.7906218146691608E-4
294,65.30579222250755,6.504197303202139E-7,1.7971260119723628E-4
295,65.14579160448842,6.335697256330961E-7,1.8034617092286937E-4
296,64.99428073875256,6.332474686396877E-7,1.8097941839150905E-4
297,64.84131344327174,6.432760412306925E-7,1.8162269443273974E-4
298,64.69434123562547,6.339481195351655E-7,1.822566425522749E-4
299,64.54365910305202,6.468381732348986E-7,1.829034807255098E-4
300,64.39085799358854,6.476770659401681E-7,1.8355115779144997E-4
301,64.24159115117307,6.627222773063456E-7,1.842138800687563E-4
302,64.085958852155,6.626589325843833E-7,1.8487653900134068E-4
303,63.92913707023092,6.572645479736527E-7,1.8553380354931434E-4
304,63.772287335080954,6.560222671131429E-7,1.861898258164275E-4
305,63.618475502954,6.453304264456759E-7,1.8683515624287315E-4
306,63.46697001687337,6.388256772273036E-7,1.8747398192010047E-4
307,63.316080186634835,6.456396929702461E-7,1.8811962161307072E-4
308,63.16363806800733,6.47213664004928E-7,1.8876683527707563E-4
309,63.00262984762728,6.44636181201952E-7,1.894114714582776E-4
310,62.839173014667,6.469336516086648E-7,1.9005840510988626E-4
311,62.673606001425505,6.445979239680736E-7,1.9070300303385433E-4
312,62.51525719405812,6.39832182383461E-7,1.913428352162378E-4
