#t,ESS,tempDiff,temp
0,999.9999999999848,0.0,0.0
1,999.9899999999988,1.8983233439395213E-6,1.8983233439395213E-6
2,999.960092507939,1.904461124893587E-6,3.8027844688331084E-6
3,999.9103841431134,1.9060206569381752E-6,5.708805125771284E-6
4,999.840933092314,1.9040601482436098E-6,7.612865274014894E-6
5,999.7519350402662,1.9015225144757156E-6,9.51438778849061E-6
6,999.643523167837,1.9005816196432662E-6,1.1414969408133876E-5
7,999.5156652193994,1.901078680633548E-6,1.3316048088767424E-5
8,999.3686663971267,1.9059678870040727E-6,1.5222015975771496E-5
9,999.2025327159203,1.913532815191832E-6,1.7135548790963327E-5
10,999.0173110959665,1.912714961165566E-6,1.9048263752128893E-5
11,998.8130859675158,1.9160203725647962E-6,2.096428412469369E-5
12,998.5900505116562,1.909023471538666E-6,2.2873307596232356E-5
13,998.3482624953822,1.9110398287500617E-6,2.4784347424982418E-5
14,998.0879681029452,1.9110634772521267E-6,2.6695410902234544E-5
15,997.8091932586543,1.91280837924937E-6,2.8608219281483916E-5
16,997.5120054321038,1.924319896474996E-6,3.053253917795891E-5
17,997.1966431699202,1.9307890025839876E-6,3.24633281805429E-5
18,996.8634061624855,1.9348985479769227E-6,3.439822672851982E-5
19,996.5123604357495,1.9300896071296177E-6,3.6328316335649436E-5
20,996.1439244037728,1.9274604957766984E-6,3.8255776831426136E-5
21,995.7578712975783,1.917689523836849E-6,4.0173466355262983E-5
22,995.3556502332415,1.906224823018891E-6,4.2079691178281874E-5
23,994.9359195436255,1.909501149044774E-6,4.398919232732665E-5
24,994.498427817129,1.9091923796294093E-6,4.5898384706956056E-5
25,994.0438757431826,1.915134393049425E-6,4.7813519100005484E-5
26,993.5728507014549,1.9107921542137014E-6,4.972431125421918E-5
27,993.0848821854361,1.9123192516761016E-6,5.163663050589529E-5
28,992.5799920782304,1.9011161634026386E-6,5.353774666929792E-5
29,992.0597314740011,1.9014008983834118E-6,5.543914756768134E-5
30,991.5229589061291,1.8935059460316961E-6,5.7332653513713033E-5
31,990.9700570883741,1.8995245770659206E-6,5.923217809077895E-5
32,990.4013558481481,1.8996201273718496E-6,6.11317982181508E-5
33,989.8157632305397,1.9066642717463705E-6,6.303846248989717E-5
34,989.2149772491636,1.9066626257531725E-6,6.494512511565034E-5
35,988.599703573518,1.9094221167385438E-6,6.685454723238889E-5
36,987.9677832791643,1.913989005415961E-6,6.876853623780484E-5
37,987.3216197566633,1.9121578529452715E-6,7.06806940907501E-5
38,986.6601573405723,1.9067986563278523E-6,7.258749274707796E-5
39,985.9842426458747,1.9093156351288186E-6,7.449680838220678E-5
40,985.2922918876616,1.9119550937126344E-6,7.640876347591941E-5
41,984.5853263618033,1.9033182540852649E-6,7.831208173000467E-5
42,983.8646510114007,1.8962788276468398E-6,8.020836055765151E-5
43,983.1283460081183,1.8910343794082318E-6,8.209939493705974E-5
44,982.3758490526046,1.8861762730360843E-6,8.398557121009583E-5
45,981.6072646047893,1.8860815480854152E-6,8.587165275818124E-5
46,980.824865407526,1.8803478286250875E-6,8.775200058680633E-5
47,980.028207740709,1.886000005526994E-6,8.963800059233332E-5
48,979.2190519530351,1.886189414481581E-6,9.15241900068149E-5
49,978.3954943493831,1.8945739576264494E-6,9.341876396444136E-5
50,977.5558810348728,1.8946370923882468E-6,9.53134010568296E-5
51,976.6986641536017,1.878533898985809E-6,9.719193495581542E-5
52,975.8284735848007,1.872559860760966E-6,9.906449481657638E-5
53,974.9439501609531,1.8723771704898659E-6,1.0093687198706625E-4
54,974.0453076162371,1.8770572864748577E-6,1.0281392927354111E-4
55,973.1315918992627,1.8725215502172837E-6,1.0468645082375839E-4
56,972.2052029527154,1.8732711019658226E-6,1.0655972192572422E-4
57,971.2651282045445,1.870213965653635E-6,1.0842993589137785E-4
58,970.3132589305122,1.865993796805751E-6,1.102959296881836E-4
59,969.3503605411553,1.8841145093556722E-6,1.1218004419753928E-4
60,968.3725564958883,1.8828076185233991E-6,1.1406285181606268E-4
61,967.3806818855345,1.8855106129689648E-6,1.1594836242903165E-4
62,966.376773774707,1.8943154481336526E-6,1.178426778771653E-4
63,965.3600100609578,1.8944689976185948E-6,1.197371468747839E-4
64,964.3320051332917,1.8949443580396084E-6,1.216320912328235E-4
65,963.2899026392151,1.8974725158623737E-6,1.2352956374868588E-4
66,962.236457869271,1.8914541450755672E-6,1.2542101789376144E-4
67,961.1696078075205,1.8828019910363067E-6,1.2730381988479775E-4
68,960.0913292311647,1.8833403745785108E-6,1.2918716025937625E-4
69,959.0032201920377,1.8827836987566763E-6,1.3106994395813292E-4
70,957.906171909303,1.8797102204635873E-6,1.329496541785965E-4
71,956.7971447029188,1.8762491423275545E-6,1.3482590332092407E-4
72,955.6744061035113,1.8753561842268945E-6,1.3670125950515096E-4
73,954.5436953413179,1.8681898373427316E-6,1.385694493424937E-4
74,953.4034129216016,1.8746321721953487E-6,1.4044408151468905E-4
75,952.2508442547963,1.8733916701610913E-6,1.4231747318485015E-4
76,951.086933512696,1.8736337907265998E-6,1.4419110697557676E-4
77,949.9085576623078,1.8719547528180786E-6,1.4606306172839484E-4
78,948.7181524841645,1.8662013906271912E-6,1.4792926311902203E-4
79,947.5124175662686,1.8602658678504363E-6,1.4978952898687245E-4
80,946.2953379131117,1.8516868629580027E-6,1.5164121584983046E-4
81,945.066415074773,1.849730843507231E-6,1.534909466933377E-4
82,943.8291487144126,1.8553985176835387E-6,1.5534634521102125E-4
83,942.5816351318769,1.8606902377524112E-6,1.5720703544877366E-4
84,941.3248923662511,1.8616124865280224E-6,1.590686479353017E-4
85,940.0634649377981,1.8782311871233602E-6,1.6094687912242506E-4
86,938.7934292702591,1.871193029588253E-6,1.628180721520133E-4
87,937.5138754897741,1.8734392777932834E-6,1.6469151142980658E-4
88,936.2226198343571,1.8709505715575464E-6,1.6656246200136412E-4
89,934.920590335476,1.8781176680471994E-6,1.6844057966941133E-4
90,933.6091672688925,1.8781423083722117E-6,1.7031872197778355E-4
91,932.2863159437271,1.8792002572465454E-6,1.721979222350301E-4
92,930.9539521924984,1.8870479202793814E-6,1.7408497015530946E-4
93,929.6176210235783,1.8890157185412042E-6,1.7597398587385066E-4
94,928.2745813301029,1.8935564844780219E-6,1.7786754235832867E-4
95,926.9233195176873,1.8964559952658243E-6,1.797639983535945E-4
96,925.5573107892413,1.9014351450623264E-6,1.8166543349865683E-4
97,924.1846274426586,1.8986593129834247E-6,1.8356409281164026E-4
98,922.8031306364313,1.8936365428224535E-6,1.854577293544627E-4
99,921.4112211678284,1.8952603533835164E-6,1.8735298970784623E-4
100,920.0109015752781,1.8916296322070688E-6,1.892446193400533E-4
101,918.6009865901021,1.8877711966143999E-6,1.911323905366677E-4
102,917.1785679204934,1.8876942051331472E-6,1.9302008474180083E-4
103,915.752070211786,1.8786147906045395E-6,1.9489869953240538E-4
104,914.3135491448464,1.879386921590983E-6,1.9677808645399635E-4
105,912.863524643561,1.888373275431011E-6,1.9866645972942736E-4
106,911.4001318497869,1.8914962087787869E-6,2.0055795593820614E-4
107,909.9289747661064,1.8957171992484413E-6,2.0245367313745458E-4
108,908.450797946806,1.8906725953720124E-6,2.0434434573282658E-4
109,906.9632005760286,1.8928021160457236E-6,2.0623714784887232E-4
110,905.4695069344576,1.8848304099714263E-6,2.0812197825884375E-4
111,903.9730175052083,1.8855860182723972E-6,2.1000756427711615E-4
112,902.471265528196,1.8913070779372995E-6,2.1189887135505346E-4
113,900.9642567298505,1.8894549044597366E-6,2.137883262595132E-4
114,899.4535194666715,1.8975009484472367E-6,2.1568582720796043E-4
115,897.937124237409,1.896253791046101E-6,2.1758208099900654E-4
116,896.4111820492607,1.8893057670972315E-6,2.1947138676610376E-4
117,894.8753750240085,1.8883581843473783E-6,2.2135974495045114E-4
118,893.3334554450992,1.8784083637459676E-6,2.2323815331419712E-4
119,891.7891887724398,1.8790299838618134E-6,2.2511718329805893E-4
120,890.2436390261952,1.8843414738523473E-6,2.270015247719113E-4
121,888.6940203555392,1.886959618916747E-6,2.2888848439082802E-4
122,887.1399095604568,1.8955186126444888E-6,2.3078400300347252E-4
123,885.5782240269411,1.9013281594506148E-6,2.3268533116292312E-4
124,884.0164537638556,1.9001211611879882E-6,2.345854523241111E-4
125,882.4483774871343,1.888437639968392E-6,2.364738899640795E-4
126,880.8747120709813,1.885861682340037E-6,2.3835975164641953E-4
127,879.2941264482723,1.8868600644844625E-6,2.40246611710904E-4
128,877.7016715251265,1.8809525337188393E-6,2.4212756424462283E-4
129,876.1027323352624,1.8808690082634792E-6,2.4400843325288632E-4
130,874.5042101631993,1.8701352120277367E-6,2.458785684649141E-4
131,872.8998959190492,1.8646184188373236E-6,2.477431868837514E-4
132,871.2913708651113,1.8685470327204709E-6,2.4961173391647187E-4
133,869.6762840766434,1.8778258346270716E-6,2.5148955975109896E-4
134,868.0611842528087,1.8925316817263834E-6,2.5338209143282536E-4
135,866.4376882008455,1.887520561663021E-6,2.5526961199448837E-4
136,864.8055843664234,1.887526155561937E-6,2.571571381500503E-4
137,863.1650439825767,1.8836879703083088E-6,2.5904082612035863E-4
138,861.5175647624168,1.8821980815619825E-6,2.609230242019206E-4
139,859.8680176444745,1.8804585107257536E-6,2.6280348271264637E-4
140,858.2127260044028,1.8811087298825834E-6,2.6468459144252896E-4
141,856.5490813377404,1.8784721028709558E-6,2.6656306354539994E-4
142,854.8821286374466,1.8902946707650989E-6,2.6845335821616505E-4
143,853.2083512147424,1.8839601795077136E-6,2.703373183956728E-4
144,851.5379101352536,1.8841208232292873E-6,2.722214392189021E-4
145,849.8588237153149,1.878416935674308E-6,2.740998561545764E-4
146,848.1668918002492,1.87200162340998E-6,2.759718577779864E-4
147,846.4672469579854,1.8669750719626076E-6,2.7783883284994903E-4
148,844.7549236574207,1.8566180287994347E-6,2.7969545087874845E-4
149,843.0446683959462,1.859662957224375E-6,2.8155511383597283E-4
150,841.3227450972491,1.8548949312855623E-6,2.834100087672584E-4
151,839.6045997404041,1.8520136921020358E-6,2.8526202245936043E-4
152,837.8786793506504,1.850498799873057E-6,2.871125212592335E-4
153,836.1545866026765,1.86729225249366E-6,2.8897981351172714E-4
154,834.4296170037644,1.8636910515629371E-6,2.9084350456329007E-4
155,832.6971312295707,1.8554305121791693E-6,2.9269893507546924E-4
156,830.9622322519939,1.852986837347668E-6,2.945519219128169E-4
157,829.2180844290205,1.8477466444808626E-6,2.9639966855729777E-4
158,827.4690706689669,1.8466334565456195E-6,2.982463020138434E-4
159,825.7189424424483,1.846686304968995E-6,3.000929883188124E-4
160,823.96947623414,1.8472279521277618E-6,3.019402162709401E-4
161,822.2149414293135,1.8544010686811602E-6,3.037946173396213E-4
162,820.4582036853436,1.8596772775551532E-6,3.0565429461717645E-4
163,818.7121687227318,1.8708073249747952E-6,3.0752510194215123E-4
164,816.9661008790026,1.8698277864481188E-6,3.0939492972859934E-4
165,815.2230466543893,1.871599144185405E-6,3.1126652887278474E-4
166,813.483438766202,1.865570167444809E-6,3.1313209904022956E-4
167,811.7286349322148,1.8625170425505726E-6,3.1499461608278014E-4
168,809.9729665115963,1.8628462090463712E-6,3.168574622918265E-4
169,808.2119211889035,1.863298176015984E-6,3.187207604678425E-4
170,806.4529912209338,1.8651189509468245E-6,3.2058587941878933E-4
171,804.6954782107041,1.8681166017214065E-6,3.2245399602051075E-4
172,802.9390202728855,1.8692171447530542E-6,3.243232131652638E-4
173,801.1827725492748,1.886379535979907E-6,3.262095927012437E-4
174,799.4277334358793,1.8922584935793504E-6,3.2810185119482304E-4
175,797.671473383412,1.8803427652475687E-6,3.299821939600706E-4
176,795.901445113282,1.879971159164307E-6,3.318621651192349E-4
177,794.1387669557706,1.8769149863044161E-6,3.3373908010553933E-4
178,792.3763106685578,1.8954459641993305E-6,3.356345260697387E-4
179,790.6303063127555,1.900410436993032E-6,3.375349365067317E-4
180,788.884720102304,1.8931668474200852E-6,3.394281033541518E-4
181,787.1257688086728,1.8902914776036537E-6,3.4131839483175547E-4
182,785.3627768150791,1.889072797712948E-6,3.432074676294684E-4
183,783.6002800942316,1.8861084940634402E-6,3.4509357612353184E-4
184,781.8339848071906,1.887219509231625E-6,3.469807956327635E-4
185,780.0634997584422,1.8767628721369019E-6,3.488575585049004E-4
186,778.2894506536941,1.8723510792681496E-6,3.5072990958416855E-4
187,776.5098723321413,1.862818144011578E-6,3.525927277281801E-4
188,774.7317020920542,1.8724874982761664E-6,3.544652152264563E-4
189,772.9572827048221,1.8770979337740359E-6,3.5634231316023033E-4
190,771.1851560594939,1.8747777732234987E-6,3.5821709093345383E-4
191,769.4109245437756,1.8748423420316836E-6,3.6009193327548553E-4
192,767.625088373214,1.8807731934007096E-6,3.619727064688862E-4
193,765.8425054308196,1.8780402482478183E-6,3.63850746717134E-4
194,764.0536822830815,1.8759117684907163E-6,3.657266584856247E-4
195,762.2658012912703,1.87978028769709E-6,3.676064387733218E-4
196,760.4771991587511,1.8776809537693798E-6,3.694841197270912E-4
197,758.6973550189628,1.8779605440236099E-6,3.713620802711148E-4
198,756.9112299282805,1.8765940290931258E-6,3.732386743002079E-4
199,755.1328811927474,1.8785357770732588E-6,3.751172100772812E-4
200,753.3514509596644,1.8767560169088362E-6,3.7699396609419005E-4
201,751.5756391442244,1.8797400617479379E-6,3.78873706155938E-4
202,749.7968987278625,1.8777400399027395E-6,3.807514461958407E-4
203,748.0103074282029,1.8714122746316323E-6,3.8262285847047233E-4
204,746.2164182164322,1.8651992037532985E-6,3.8448805767422563E-4
205,744.4345631145978,1.858620352853727E-6,3.8634667802707934E-4
206,742.6496925993558,1.8636777111301894E-6,3.882103557382095E-4
207,740.874602434986,1.8620155561379709E-6,3.9007237129434747E-4
208,739.1040740791618,1.8640002883569527E-6,3.9193637158270445E-4
209,737.3405310073064,1.8661149008449777E-6,3.938024864835494E-4
210,735.5649962945411,1.857569087388296E-6,3.956600555709377E-4
211,733.7843215117467,1.8589169578162315E-6,3.9751897252875395E-4
212,732.0054417500553,1.8521482147628804E-6,3.9937112074351684E-4
213,730.228710234767,1.8528305959382607E-6,4.012239513394551E-4
214,728.4637793270679,1.8531329850907755E-6,4.030770843245459E-4
215,726.693259354321,1.8533026178966352E-6,4.049303869424425E-4
216,724.9213601056255,1.8448205024687063E-6,4.067752074449112E-4
217,723.1480262037967,1.8430102783342684E-6,4.0861821772324544E-4
218,721.376113932744,1.833958118974999E-6,4.1045217584222046E-4
219,719.5973243252919,1.8275833041196649E-6,4.122797591463401E-4
220,717.8141546793652,1.820774671907263E-6,4.141005338182474E-4
221,716.0164342233855,1.8129843951236112E-6,4.15913518213371E-4
222,714.2170370844126,1.8083916873970136E-6,4.17721909900768E-4
223,712.4177730482164,1.8258619350824308E-6,4.1954777183585043E-4
224,710.6200567876529,1.8241506916318764E-6,4.213719225274823E-4
225,708.825157157124,1.830040018191489E-6,4.2320196254567376E-4
226,707.0303131137583,1.8282943008982062E-6,4.2503025684657197E-4
227,705.2306106978052,1.8205257857911504E-6,4.268507826323631E-4
228,703.425153673865,1.8169546273286875E-6,4.286677372596918E-4
229,701.6276354766786,1.8163194860405547E-6,4.304840567457324E-4
230,699.8224359591039,1.8156676469839823E-6,4.3229972439271636E-4
231,698.0135678626652,1.8189121325532568E-6,4.341186365252696E-4
232,696.2047567435023,1.8254245996507611E-6,4.3594406112492035E-4
233,694.3945484931704,1.822170980170142E-6,4.377662321050905E-4
234,692.5831165190422,1.8268188709160607E-6,4.3959305097600657E-4
235,690.7700360996872,1.8234433721554072E-6,4.41416494348162E-4
236,688.9624220821296,1.8281238303930919E-6,4.432446181785551E-4
237,687.1547075871779,1.8335985950040344E-6,4.4507821677355913E-4
238,685.3499289805874,1.8326813887873233E-6,4.4691089816234643E-4
239,683.5442419600964,1.8206977487414692E-6,4.487315959110879E-4
240,681.7390751244096,1.8218316280198632E-6,4.5055342753910776E-4
241,679.9268977322953,1.8221118020095157E-6,4.5237553934111726E-4
242,678.1021237466268,1.8168829249594582E-6,4.541924222660767E-4
243,676.280112768432,1.8086273079370704E-6,4.5600104957401377E-4
244,674.4555599624156,1.8020561770811824E-6,4.5780310575109495E-4
245,672.6396251053203,1.7901197787055668E-6,4.595932255298005E-4
246,670.820614220208,1.7937675219656719E-6,4.613869930517662E-4
247,669.0102899515174,1.7994657345853608E-6,4.6318645878635155E-4
248,667.1944020533278,1.8100018392786705E-6,4.649964606256302E-4
249,665.3747642657602,1.8061074275336694E-6,4.668025680531639E-4
250,663.5576048896305,1.80296072041431E-6,4.6860552877357823E-4
251,661.7331266634216,1.811569258323169E-6,4.704170980319014E-4
252,659.9153041564998,1.8050392277153373E-6,4.722221372596167E-4
253,658.0952467577407,1.7925778428744058E-6,4.740147151024911E-4
254,656.2670617075273,1.7915864719173685E-6,4.7580630157440846E-4
255,654.4433410274801,1.8005050409868768E-6,4.7760680661539535E-4
256,652.6112667691706,1.7922320816458618E-6,4.793990386970412E-4
257,650.778737537524,1.803895450493E-6,4.812029341475342E-4
258,648.9503500101209,1.8041563519207978E-6,4.8300709049945497E-4
259,647.1244365920986,1.8039921873614566E-6,4.848110826868164E-4
260,645.2979076664169,1.8003360590284099E-6,4.866114187458448E-4
261,643.4629808459132,1.7993512556795487E-6,4.884107700015243E-4
262,641.6382524170483,1.8054582157224444E-6,4.902162282172468E-4
263,639.8126254201516,1.8085318950359643E-6,4.920247601122828E-4
264,637.980636261645,1.803022022485185E-6,4.938277821347679E-4
265,636.1483263163552,1.8051496779027508E-6,4.956329318126707E-4
266,634.300275941873,1.7999281943591616E-6,4.974328600070299E-4
267,632.4580538483467,1.7938139330858334E-6,4.992266739401157E-4
268,630.6098944600313,1.7993572795721024E-6,5.010260312196878E-4
269,628.7466002399132,1.7927192913165606E-6,5.028187505110043E-4
270,626.8811922202573,1.7928012215621414E-6,5.046115517325664E-4
271,625.0144767730787,1.797254537260282E-6,5.064088062698267E-4
272,623.1299928240574,1.7884454032415585E-6,5.081972516730683E-4
273,621.2354550508945,1.7826510959143488E-6,5.099799027689826E-4
274,619.357406581611,1.7751898446364726E-6,5.117550926136192E-4
275,617.4790563648559,1.7759599677574954E-6,5.135310525813767E-4
276,615.606625467941,1.7773649471195997E-6,5.153084175284963E-4
277,613.7357134916891,1.7705418357603743E-6,5.170789593642567E-4
278,611.8746982471405,1.7615513622000766E-6,5.188405107264568E-4
279,610.0174515145198,1.7538342811516418E-6,5.205943450076084E-4
280,608.1662445805692,1.752512594112099E-6,5.223468576017205E-4
281,606.3171046356894,1.7479480578173815E-6,5.240948056595378E-4
282,604.4687855760948,1.7524630498022728E-6,5.258472687093401E-4
283,602.6206512345489,1.755380320576946E-6,5.276026490299171E-4
284,600.7787950222736,1.7507710522771859E-6,5.293534200821943E-4
285,598.9149499327788,1.7572707333000607E-6,5.311106908154943E-4
286,597.0564269817995,1.7613898294049786E-6,5.328720806448993E-4
287,595.1926276674221,1.7583136624243938E-6,5.346303943073237E-4
288,593.3354906994297,1.771114707160453E-6,5.364015090144841E-4
289,591.4799532135195,1.7745768427316996E-6,5.381760858572159E-4
290,589.6311428159664,1.7788794359040517E-6,5.399549652931199E-4
291,587.7868763608486,1.7844877420316028E-6,5.417394530351515E-4
292,585.9019771266737,1.7619917026890092E-6,5.435014447378405E-4
293,584.0250176790111,1.7565647971141823E-6,5.452580095349546E-4
294,582.1431257324356,1.7591832652037464E-6,5.470171928001583E-4
295,580.2513307747533,1.7526640802627656E-6,5.487698568804211E-4
296,578.3676745473986,1.7571170224896443E-6,5.505269739029108E-4
297,576.4761782130889,1.7546055875998333E-6,5.522815794905105E-4
298,574.5857325522156,1.7515850311202004E-6,5.540331645216307E-4
299,572.6912472780847,1.7518779331722499E-6,5.55785042454803E-4
300,570.8021228860671,1.7510757328265715E-6,5.575361181876296E-4
301,568.9156343514862,1.755700610722446E-6,5.59291818798352E-4
302,567.0222057944015,1.7432184200786576E-6,5.610350372184307E-4
303,565.1424192801652,1.7501354035396821E-6,5.627851726219703E-4
304,563.2596701938697,1.7493076485210533E-6,5.645344802704913E-4
305,561.3872844346681,1.7643339547579993E-6,5.662988142252493E-4
306,559.5368713490541,1.7735366112006106E-6,5.680723508364499E-4
307,557.687571729157,1.7743398873578734E-6,5.698466907238078E-4
308,555.8490096448714,1.778403730639136E-6,5.71625094454447E-4
