#t,ESS,tempDiff,temp
0,999.9999999999848,0.0,0.0
1,999.9894236381152,1.8983233439395213E-6,1.8983233439395213E-6
2,999.957613203475,1.904461124893587E-6,3.8027844688331084E-6
3,999.9046918988697,1.9060206569381752E-6,5.708805125771284E-6
4,999.8309682223519,1.9040601482436098E-6,7.612865274014894E-6
5,999.7367525669206,1.9015225144757156E-6,9.51438778849061E-6
6,999.6217731526614,1.9005816196432662E-6,1.1414969408133876E-5
7,999.4860967108087,1.901078680633548E-6,1.3316048088767424E-5
8,999.3294956368833,1.9059678870040727E-6,1.5222015975771496E-5
9,999.151591930625,1.913532815191832E-6,1.7135548790963327E-5
10,998.953144997008,1.912714961165566E-6,1.9048263752128893E-5
11,998.7339913567391,1.9160203725647962E-6,2.096428412469369E-5
12,998.4944272418751,1.909023471538666E-6,2.2873307596232356E-5
13,998.235299108636,1.9110398287500617E-6,2.4784347424982418E-5
14,997.9559630900362,1.9110634772521267E-6,2.6695410902234544E-5
15,997.655705583414,1.91280837924937E-6,2.8608219281483916E-5
16,997.334237038097,1.924319896474996E-6,3.053253917795891E-5
17,996.9913556999051,1.9307890025839876E-6,3.24633281805429E-5
18,996.6272563149021,1.9348985479769227E-6,3.439822672851982E-5
19,996.243677053197,1.9300896071296177E-6,3.6328316335649436E-5
20,995.8415193775725,1.9274604957766984E-6,3.8255776831426136E-5
21,995.4230709197503,1.917689523836849E-6,4.0173466355262983E-5
22,994.9893304511269,1.906224823018891E-6,4.2079691178281874E-5
23,994.5348743072726,1.909501149044774E-6,4.398919232732665E-5
24,994.0633634421563,1.9091923796294093E-6,4.5898384706956056E-5
25,993.5707286287692,1.915134393049425E-6,4.7813519100005484E-5
26,993.0637937971893,1.9107921542137014E-6,4.972431125421918E-5
27,992.5378249372388,1.9123192516761016E-6,5.163663050589529E-5
28,991.9978093365564,1.9011161634026386E-6,5.353774666929792E-5
29,991.4431236587292,1.9014008983834118E-6,5.543914756768134E-5
30,990.8721140912502,1.8935059460316961E-6,5.7332653513713033E-5
31,990.2785192294742,1.8995245770659206E-6,5.923217809077895E-5
32,989.6678394081238,1.8996201273718496E-6,6.11317982181508E-5
33,989.0340779852244,1.9066642717463705E-6,6.303846248989717E-5
34,988.3845283512045,1.9066626257531725E-6,6.494512511565034E-5
35,987.7163397893653,1.9094221167385438E-6,6.685454723238889E-5
36,987.0257876749308,1.913989005415961E-6,6.876853623780484E-5
37,986.3178857095431,1.9121578529452715E-6,7.06806940907501E-5
38,985.5922105694146,1.9067986563278523E-6,7.258749274707796E-5
39,984.8505565711755,1.9093156351288186E-6,7.449680838220678E-5
40,984.0924316241956,1.9119550937126344E-6,7.640876347591941E-5
41,983.3206871040604,1.9033182540852649E-6,7.831208173000467E-5
42,982.5382782891558,1.8962788276468398E-6,8.020836055765151E-5
43,981.7402210372298,1.8910343794082318E-6,8.209939493705974E-5
44,980.9214439918806,1.8861762730360843E-6,8.398557121009583E-5
45,980.0838384088831,1.8860815480854152E-6,8.587165275818124E-5
46,979.2323869346314,1.8803478286250875E-6,8.775200058680633E-5
47,978.3548374769967,1.886000005526994E-6,8.963800059233332E-5
48,977.45546195783,1.886189414481581E-6,9.15241900068149E-5
49,976.5360951675782,1.8945739576264494E-6,9.341876396444136E-5
50,975.597073975313,1.8946370923882468E-6,9.53134010568296E-5
51,974.6529231285882,1.878533898985809E-6,9.719193495581542E-5
52,973.6959722494453,1.872559860760966E-6,9.906449481657638E-5
53,972.7266491716828,1.8723771704898659E-6,1.0093687198706625E-4
54,971.7400499655673,1.8770572864748577E-6,1.0281392927354111E-4
55,970.7374747584701,1.8725215502172837E-6,1.0468645082375839E-4
56,969.7263921452284,1.8732711019658226E-6,1.0655972192572422E-4
57,968.6950792914037,1.870213965653635E-6,1.0842993589137785E-4
58,967.6534644779788,1.865993796805751E-6,1.102959296881836E-4
59,966.5770775993257,1.8841145093556722E-6,1.1218004419753928E-4
60,965.4845020425067,1.8828076185233991E-6,1.1406285181606268E-4
61,964.3769245125224,1.8855106129689648E-6,1.1594836242903165E-4
62,963.2475443936954,1.8943154481336526E-6,1.178426778771653E-4
63,962.1049848995174,1.8944689976185948E-6,1.197371468747839E-4
64,960.9553605090993,1.8949443580396084E-6,1.216320912328235E-4
65,959.785400335561,1.8974725158623737E-6,1.2352956374868588E-4
66,958.6114799596915,1.8914541450755672E-6,1.2542101789376144E-4
67,957.4269996355822,1.8828019910363067E-6,1.2730381988479775E-4
68,956.2222817149852,1.8833403745785108E-6,1.2918716025937625E-4
69,955.0088672913078,1.8827836987566763E-6,1.3106994395813292E-4
70,953.7822206875276,1.8797102204635873E-6,1.329496541785965E-4
71,952.5455004523924,1.8762491423275545E-6,1.3482590332092407E-4
72,951.2951884379593,1.8753561842268945E-6,1.3670125950515096E-4
73,950.0296957852338,1.8681898373427316E-6,1.385694493424937E-4
74,948.7380521852604,1.8746321721953487E-6,1.4044408151468905E-4
75,947.4294310291664,1.8733916701610913E-6,1.4231747318485015E-4
76,946.1050517476839,1.8736337907265998E-6,1.4419110697557676E-4
77,944.7584740434688,1.8719547528180786E-6,1.4606306172839484E-4
78,943.4079776631245,1.8662013906271912E-6,1.4792926311902203E-4
79,942.0497942219655,1.8602658678504363E-6,1.4978952898687245E-4
80,940.6897921031563,1.8516868629580027E-6,1.5164121584983046E-4
81,939.3172282784376,1.849730843507231E-6,1.534909466933377E-4
82,937.9286601759248,1.8553985176835387E-6,1.5534634521102125E-4
83,936.523690815117,1.8606902377524112E-6,1.5720703544877366E-4
84,935.1006591260458,1.8616124865280224E-6,1.590686479353017E-4
85,933.6508017968239,1.8782311871233602E-6,1.6094687912242506E-4
86,932.1908926808758,1.871193029588253E-6,1.628180721520133E-4
87,930.7194435041024,1.8734392777932834E-6,1.6469151142980658E-4
88,929.236265189236,1.8709505715575464E-6,1.6656246200136412E-4
89,927.7364351236874,1.8781176680471994E-6,1.6844057966941133E-4
90,926.2259657760782,1.8781423083722117E-6,1.7031872197778355E-4
91,924.7045531955683,1.8792002572465454E-6,1.721979222350301E-4
92,923.1802297833713,1.8870479202793814E-6,1.7408497015530946E-4
93,921.6400338760523,1.8890157185412042E-6,1.7597398587385066E-4
94,920.0750869192229,1.8935564844780219E-6,1.7786754235832867E-4
95,918.5064894010194,1.8964559952658243E-6,1.797639983535945E-4
96,916.9235752826271,1.9014351450623264E-6,1.8166543349865683E-4
97,915.3319715652949,1.8986593129834247E-6,1.8356409281164026E-4
98,913.7253316572798,1.8936365428224535E-6,1.854577293544627E-4
99,912.0927770205718,1.8952603533835164E-6,1.8735298970784623E-4
100,910.4442377858043,1.8916296322070688E-6,1.892446193400533E-4
101,908.7791210463035,1.8877711966143999E-6,1.911323905366677E-4
102,907.0998187854415,1.8876942051331472E-6,1.9302008474180083E-4
103,905.4210968339426,1.8786147906045395E-6,1.9489869953240538E-4
104,903.7356610689435,1.879386921590983E-6,1.9677808645399635E-4
105,902.0298311468357,1.888373275431011E-6,1.9866645972942736E-4
106,900.3032219136442,1.8914962087787869E-6,2.0055795593820614E-4
107,898.5533182227197,1.8957171992484413E-6,2.0245367313745458E-4
108,896.8009708129881,1.8906725953720124E-6,2.0434434573282658E-4
109,895.0249532982883,1.8928021160457236E-6,2.0623714784887232E-4
110,893.2556970295742,1.8848304099714263E-6,2.0812197825884375E-4
111,891.4699987401273,1.8855860182723972E-6,2.1000756427711615E-4
112,889.6621432953726,1.8913070779372995E-6,2.1189887135505346E-4
113,887.8455590469534,1.8894549044597366E-6,2.137883262595132E-4
114,886.0067816593295,1.8975009484472367E-6,2.1568582720796043E-4
115,884.1627680653386,1.896253791046101E-6,2.1758208099900654E-4
116,882.3066030499546,1.8893057670972315E-6,2.1947138676610376E-4
117,880.4366139340151,1.8883581843473783E-6,2.2135974495045114E-4
118,878.5700792023787,1.8784083637459676E-6,2.2323815331419712E-4
119,876.6871546717321,1.8790299838618134E-6,2.2511718329805893E-4
120,874.7876250608085,1.8843414738523473E-6,2.270015247719113E-4
121,872.8938637585384,1.886959618916747E-6,2.2888848439082802E-4
122,870.9790648917291,1.8955186126444888E-6,2.3078400300347252E-4
123,869.0546552285208,1.9013281594506148E-6,2.3268533116292312E-4
124,867.1226692932992,1.9001211611879882E-6,2.345854523241111E-4
125,865.1891388936041,1.888437639968392E-6,2.364738899640795E-4
126,863.2492630247218,1.885861682340037E-6,2.3835975164641953E-4
127,861.293672234858,1.8868600644844625E-6,2.40246611710904E-4
128,859.3409930790336,1.8809525337188393E-6,2.4212756424462283E-4
129,857.363984048648,1.8808690082634792E-6,2.4400843325288632E-4
130,855.3890113371422,1.8701352120277367E-6,2.458785684649141E-4
131,853.4143319730061,1.8646184188373236E-6,2.477431868837514E-4
132,851.4393784911192,1.8685470327204709E-6,2.4961173391647187E-4
133,849.4394830912778,1.8778258346270716E-6,2.5148955975109896E-4
134,847.402941364706,1.8925316817263834E-6,2.5338209143282536E-4
135,845.357689828477,1.887520561663021E-6,2.5526961199448837E-4
136,843.2971187318789,1.887526155561937E-6,2.571571381500503E-4
137,841.220731968963,1.8836879703083088E-6,2.5904082612035863E-4
138,839.1253751712106,1.8821980815619825E-6,2.609230242019206E-4
139,837.0233389752136,1.8804585107257536E-6,2.6280348271264637E-4
140,834.8762434008885,1.8811087298825834E-6,2.6468459144252896E-4
141,832.7484580313974,1.8784721028709558E-6,2.6656306354539994E-4
142,830.5618004061524,1.8902946707650989E-6,2.6845335821616505E-4
143,828.3524187287602,1.8839601795077136E-6,2.703373183956728E-4
144,826.117155610932,1.8841208232292873E-6,2.722214392189021E-4
145,823.8761684590925,1.878416935674308E-6,2.740998561545764E-4
146,821.6236559840537,1.87200162340998E-6,2.759718577779864E-4
147,819.3770039279356,1.8669750719626076E-6,2.7783883284994903E-4
148,817.1399259339114,1.8566180287994347E-6,2.7969545087874845E-4
149,814.9063150568261,1.859662957224375E-6,2.8155511383597283E-4
150,812.6872238893856,1.8548949312855623E-6,2.834100087672584E-4
151,810.4505131387351,1.8520136921020358E-6,2.8526202245936043E-4
152,808.2400614705009,1.850498799873057E-6,2.871125212592335E-4
153,805.9953085982986,1.86729225249366E-6,2.8897981351172714E-4
154,803.7434258591685,1.8636910515629371E-6,2.9084350456329007E-4
