#t,ESS,tempDiff,temp
0,200.00000000000065,0.0,0.0
1,199.99977137193295,4.9232299180855055E-6,4.9232299180855055E-6
2,199.99908675107548,4.909995703682363E-6,9.833225621767868E-6
3,199.99796190750666,4.903116683865432E-6,1.47363423056333E-5
4,199.99639088854056,4.911837367926081E-6,1.9648179673559382E-5
5,199.99433836956217,4.968168968629651E-6,2.461634864218903E-5
6,199.99179599661213,5.024536711491695E-6,2.9640885353680726E-5
7,199.9888331496127,5.019199564270677E-6,3.4660084917951404E-5
8,199.98548468679977,4.996715726499248E-6,3.9656800644450655E-5
9,199.98177977804863,4.939337864869852E-6,4.459613850932051E-5
10,199.97769566312684,4.901374579302829E-6,4.949751308862334E-5
11,199.97314586664382,4.934000700307805E-6,5.443151378893114E-5
12,199.96829627116387,4.893248384137451E-6,5.932476217306859E-5
13,199.9630867109798,4.87849564008732E-6,6.420325781315591E-5
14,199.95734030058608,4.932258533619999E-6,6.91355163467759E-5
15,199.95131983467886,4.837147398026454E-6,7.397266374480236E-5
16,199.94483677149458,4.890658977422383E-6,7.886332272222474E-5
17,199.93806029467936,4.874554747683229E-6,8.373787746990796E-5
18,199.9310222888384,4.8512413642751145E-6,8.858911883418307E-5
19,199.92367445197053,4.759131630015467E-6,9.334825046419854E-5
20,199.91588993818692,4.767564028367408E-6,9.811581449256594E-5
21,199.90771843659735,4.762596194706503E-6,1.0287841068727244E-4
22,199.89895830571703,4.833113006449036E-6,1.0771152369372147E-4
23,199.88991428117703,4.798439183273974E-6,1.1250996287699545E-4
24,199.88047441051796,4.870807521496572E-6,1.1738077039849202E-4
25,199.87086496366433,4.829645340655715E-6,1.2221041573914774E-4
26,199.86074082405074,4.893638653358696E-6,1.2710405439250643E-4
27,199.8501016581199,4.937630188977541E-6,1.3204168458148398E-4
28,199.8390054315411,4.917574874183574E-6,1.3695925945566756E-4
29,199.82751804651969,4.933247104072154E-6,1.4189250655973973E-4
30,199.81572700856293,4.871997507631003E-6,1.4676450406737074E-4
31,199.80363994986118,4.827544711425766E-6,1.515920487787965E-4
32,199.79129664667585,4.880613104600049E-6,1.5647266188339654E-4
33,199.77891830690274,4.824681043947092E-6,1.6129734292734364E-4
34,199.76628952920242,4.78094982323136E-6,1.66078292750575E-4
35,199.7530963980583,4.783765386386233E-6,1.7086205813696123E-4
36,199.73932592557583,4.833359105280414E-6,1.7569541724224164E-4
37,199.7251996399778,4.820963735664418E-6,1.8051638097790607E-4
38,199.71079304504983,4.808354245336116E-6,1.8532473522324218E-4
39,199.69613143366934,4.786370543603172E-6,1.9011110576684537E-4
40,199.68109859702122,4.7719855054765116E-6,1.9488309127232186E-4
41,199.6654786145361,4.7921573404247424E-6,1.9967524861274662E-4
42,199.6494183302458,4.815763582387425E-6,2.0449101219513404E-4
43,199.63312229230368,4.821893031348896E-6,2.0931290522648293E-4
44,199.6160978124205,4.79961488883897E-6,2.141125201153219E-4
45,199.59871843873685,4.766207101596772E-6,2.1887872721691867E-4
46,199.58112676482224,4.774252927011848E-6,2.2365298014393053E-4
47,199.56312728416484,4.7867292218316985E-6,2.2843970936576222E-4
48,199.5445200936048,4.849203020484242E-6,2.3328891238624645E-4
49,199.52577055542048,4.799231501535743E-6,2.3808814388778218E-4
50,199.50647249587885,4.840389729181038E-6,2.4292853361696323E-4
51,199.48688854147,4.784702666647712E-6,2.4771323628361094E-4
52,199.46744116247254,4.71304961894961E-6,2.5242628590256056E-4
53,199.44770309595626,4.633282912255167E-6,2.5705956881481574E-4
54,199.42777672634355,4.635623570278751E-6,2.616951923850945E-4
55,199.40743455573505,4.665215480182547E-6,2.66360407865277E-4
56,199.38707680889448,4.681786014101725E-6,2.7104219387937874E-4
57,199.36668423653916,4.691268359706245E-6,2.7573346223908496E-4
58,199.34637931577524,4.658242023303991E-6,2.8039170426238897E-4
59,199.32550704756923,4.690267068455208E-6,2.8508197133084417E-4
60,199.3050137302641,4.648965982629916E-6,2.897309373134741E-4
61,199.28454478287492,4.609197654151519E-6,2.9434013496762565E-4
62,199.26389333226285,4.583282020205321E-6,2.9892341698783097E-4
63,199.2432383715004,4.585819537673443E-6,3.035092365255044E-4
64,199.22231164715564,4.573274073675028E-6,3.080825105991794E-4
65,199.20125036327963,4.549830455845024E-6,3.126323410550244E-4
66,199.17960911138908,4.600647474157156E-6,3.1723298852918155E-4
67,199.15789158673738,4.589384243704098E-6,3.218223727728857E-4
68,199.13595057963153,4.582614395765179E-6,3.2640498716865083E-4
69,199.11382211664406,4.6411208867263884E-6,3.3104610805537724E-4
70,199.09168216579272,4.604622715362618E-6,3.356507307707399E-4
71,199.06908064827113,4.631771915498788E-6,3.402825026862387E-4
72,199.047022197742,4.5117277229388605E-6,3.4479423040917757E-4
73,199.02462312010954,4.57637634736899E-6,3.4937060675654653E-4
74,199.0016119150567,4.562335116710266E-6,3.539329418732568E-4
75,198.97888087912207,4.453160276018699E-6,3.583861021492755E-4
76,198.95585957496726,4.4417572532335204E-6,3.6282785940250904E-4
77,198.93245155962583,4.429247526652951E-6,3.67257106929162E-4
78,198.9085804108827,4.469523406687727E-6,3.717266303358497E-4
79,198.8844436262071,4.4931404558069E-6,3.7621977079165664E-4
80,198.86004689378404,4.467940364811301E-6,3.8068771115646797E-4
81,198.8362921474751,4.422095598928981E-6,3.8510980675539693E-4
82,198.81302762506257,4.359456929039409E-6,3.8946926368443635E-4
83,198.79017195648208,4.314685571355192E-6,3.937839492557916E-4
84,198.76702266718732,4.284279204540624E-6,3.980682284603322E-4
85,198.743582698373,4.315229453196228E-6,4.023834579135284E-4
86,198.72023212723076,4.296058225783456E-6,4.0667951613931186E-4
87,198.6969070519696,4.217347691492581E-6,4.108968638308044E-4
88,198.67319799854064,4.271951379960674E-6,4.151688152107651E-4
89,198.64945052149312,4.279316617975586E-6,4.194481318287407E-4
90,198.62573196469597,4.264751978384815E-6,4.237128838071255E-4
91,198.60178974265776,4.246299288717665E-6,4.279591830958432E-4
92,198.57705925064138,4.303830789898283E-6,4.3226301388574147E-4
93,198.55228722944895,4.277144621665205E-6,4.3654015850740665E-4
94,198.52761680253155,4.231150010174771E-6,4.4077130851758145E-4
95,198.50313334008317,4.218540831884506E-6,4.4498984934946594E-4
96,198.47819951356152,4.265231757484462E-6,4.492550811069504E-4
97,198.45371720242667,4.23253929801855E-6,4.534876204049689E-4
98,198.4292586035291,4.200464792265238E-6,4.5768808519723413E-4
99,198.40455863685915,4.190315085797326E-6,4.618784002830315E-4
100,198.37914995322626,4.261367741319978E-6,4.6613976802435144E-4
101,198.35349454632242,4.262097739222979E-6,4.704018657635744E-4
102,198.32669236862256,4.37802014348548E-6,4.747798859070599E-4
103,198.2998511765503,4.375431502145785E-6,4.791553174092057E-4
104,198.27298181087315,4.378814190279981E-6,4.835341315994857E-4
105,198.24641773761095,4.3035760006227996E-6,4.8783770760010847E-4
106,198.2197780413544,4.337505093320521E-6,4.92175212693429E-4
107,198.1933950788404,4.27909088214431E-6,4.964543035755733E-4
108,198.16681984719736,4.293481030953415E-6,5.007477846065267E-4
109,198.1404253667325,4.24335853978601E-6,5.049911431463127E-4
110,198.1142441794595,4.213917821841486E-6,5.092050609681542E-4
111,198.08771195021706,4.243141746484628E-6,5.134482027146388E-4
112,198.06027136649257,4.284525553760209E-6,5.177327282683991E-4
113,198.03237727564215,4.316343477891335E-6,5.220490717462903E-4
114,198.00418353483832,4.339069923239372E-6,5.263881416695298E-4
115,197.97608312427678,4.332696300478539E-6,5.307208379700083E-4
116,197.94749003336852,4.3212702567747236E-6,5.35042108226783E-4
117,197.91929954852523,4.308793762150296E-6,5.393509019889333E-4
118,197.8909458659581,4.364872888834844E-6,5.437157748777681E-4
119,197.86243933401468,4.4831723541229875E-6,5.481989472318911E-4
120,197.83368167673453,4.512481788346807E-6,5.527114290202378E-4
121,197.8054898446761,4.481817014722438E-6,5.571932460349603E-4
122,197.77791306316053,4.478504927059955E-6,5.616717509620202E-4
123,197.74990672578912,4.502491789030418E-6,5.661742427510506E-4
124,197.72176345459502,4.486313299586526E-6,5.706605560506371E-4
125,197.69347324081366,4.405595716703337E-6,5.750661517673405E-4
126,197.665789861644,4.352091146950636E-6,5.794182429142912E-4
127,197.6372322742236,4.356761307679403E-6,5.837750042219706E-4
128,197.60818389056286,4.3675048169887515E-6,5.881425090389594E-4
129,197.57941153596806,4.43322356003798E-6,5.925757325989973E-4
130,197.5510375085262,4.410942314013429E-6,5.969866749130108E-4
131,197.5228778338518,4.4229889158952016E-6,6.014096638289059E-4
132,197.49458616438037,4.430396179548607E-6,6.058400600084545E-4
133,197.46653128249324,4.3958002339881E-6,6.102358602424427E-4
134,197.43839551484,4.413522397307438E-6,6.146493826397502E-4
135,197.40992358670297,4.398904264756366E-6,6.190482869045065E-4
136,197.38141670659004,4.394287449419317E-6,6.234425743539258E-4
137,197.35309995308037,4.313646899563059E-6,6.277562212534889E-4
138,197.32438049421918,4.32569389244093E-6,6.320819151459298E-4
139,197.29626352384554,4.240166169213494E-6,6.363220813151432E-4
140,197.2681405253365,4.211192928406314E-6,6.405332742435495E-4
141,197.23979603092042,4.2455179696675955E-6,6.447787922132172E-4
142,197.2107392195397,4.2784960086976906E-6,6.490572882219148E-4
143,197.18106408426817,4.278550117816589E-6,6.533358383397314E-4
144,197.15118875153127,4.299590241781867E-6,6.576354285815133E-4
145,197.12101657649612,4.300110825722776E-6,6.619355394072361E-4
146,197.09021602349185,4.350929560054218E-6,6.662864689672903E-4
147,197.0583490747079,4.383901064217894E-6,6.706703700315082E-4
148,197.02696648822038,4.33624242115098E-6,6.750066124526591E-4
149,196.99509239228436,4.331323183795241E-6,6.793379356364544E-4
150,196.96323863470366,4.3215088373606825E-6,6.83659444473815E-4
151,196.93011479656536,4.352482305736549E-6,6.880119267795516E-4
152,196.89707086969298,4.329082305348492E-6,6.923410090849001E-4
153,196.86421581850115,4.305003092718647E-6,6.966460121776187E-4
154,196.83263456476442,4.2428943784527664E-6,7.008889065560715E-4
155,196.80051001913967,4.229169792916151E-6,7.051180763489877E-4
156,196.76777672338943,4.222381401990231E-6,7.093404577509779E-4
157,196.73438420616588,4.276245278228504E-6,7.136167030292064E-4
158,196.7004322777907,4.306845831485477E-6,7.179235488606919E-4
159,196.66611314497436,4.356060164403291E-6,7.222796090250952E-4
160,196.63151280301912,4.376881976161779E-6,7.266564910012569E-4
161,196.59790433235347,4.329010455022707E-6,7.309855014562796E-4
162,196.56361016300818,4.325581640417314E-6,7.353110830966968E-4
163,196.52885417852187,4.326024658725898E-6,7.396371077554228E-4
164,196.49420009823143,4.382130407558915E-6,7.440192381629817E-4
165,196.45896199916643,4.43841513027539E-6,7.484576532932571E-4
166,196.4254244572063,4.355057570862109E-6,7.528127108641191E-4
167,196.39198570718958,4.371333255090952E-6,7.571840441192101E-4
168,196.3574218474029,4.454267032257417E-6,7.616383111514675E-4
169,196.32321206720243,4.440445253523166E-6,7.660787564049906E-4
170,196.28853486999125,4.473960880467925E-6,7.705527172854585E-4
171,196.25321797102478,4.467351567847287E-6,7.750200688533058E-4
172,196.21794379872546,4.459279737359709E-6,7.794793485906656E-4
173,196.181908879162,4.509875522837139E-6,7.839892241135027E-4
174,196.14529486814996,4.527225453656954E-6,7.885164495671597E-4
175,196.10969862262593,4.4515930731971686E-6,7.929680426403569E-4
176,196.0738152499569,4.480739844432078E-6,7.97448782484789E-4
177,196.03735145016634,4.523971173241256E-6,8.019727536580302E-4
178,196.00072738320554,4.536544361475633E-6,8.065092980195058E-4
179,195.96441170822138,4.554359012969689E-6,8.110636570324755E-4
180,195.92782245247474,4.539727720491139E-6,8.156033847529666E-4
181,195.89006839903482,4.638286232326061E-6,8.202416709852927E-4
182,195.85260954147705,4.6197278408947965E-6,8.248613988261875E-4
183,195.81396027699196,4.671631340947166E-6,8.295330301671347E-4
184,195.77541397966806,4.680824021725225E-6,8.342138541888599E-4
185,195.73727142725838,4.683409457463342E-6,8.388972636463233E-4
186,195.6996683289281,4.717110198105648E-6,8.43614373844429E-4
187,195.66204369185417,4.709403970464522E-6,8.483237778148934E-4
188,195.62509512638542,4.7130868323909204E-6,8.530368646472844E-4
189,195.58872823462292,4.696290066226628E-6,8.577331547135111E-4
190,195.55221695741665,4.71738834092453E-6,8.624505430544356E-4
191,195.51529949043146,4.706302470494362E-6,8.671568455249299E-4
192,195.47821482432076,4.773019377150618E-6,8.719298649020805E-4
193,195.44096716194713,4.733354025895841E-6,8.766632189279764E-4
194,195.40244400023317,4.754136435192644E-6,8.81417355363169E-4
195,195.3642181375698,4.722082104430374E-6,8.861394374675993E-4
196,195.32603262509767,4.718052003638129E-6,8.908574894712375E-4
197,195.28695997149381,4.723975275315574E-6,8.955814647465531E-4
198,195.2460375726768,4.758422260466629E-6,9.003398870070197E-4
199,195.20499356436883,4.739873066703169E-6,9.050797600737229E-4
200,195.16386336299658,4.716647102676615E-6,9.097964071763995E-4
201,195.12290177009203,4.713141293930424E-6,9.145095484703299E-4
202,195.08072397142402,4.749185783236731E-6,9.192587342535666E-4
203,195.03821859760518,4.76036988430074E-6,9.240191041378674E-4
204,194.99499730446908,4.806422663473786E-6,9.288255268013411E-4
205,194.95076826800917,4.850812086299979E-6,9.336763388876411E-4
206,194.90456296064903,4.944156745781001E-6,9.38620495633422E-4
207,194.85838526922524,4.916122764129638E-6,9.435366183975517E-4
208,194.81319391150242,4.869852689986571E-6,9.484064710875383E-4
209,194.76769349425368,4.8442064538231785E-6,9.532506775413614E-4
210,194.72300083996257,4.806320477154108E-6,9.580569980185156E-4
211,194.67868589186259,4.769237316458024E-6,9.628262353349736E-4
212,194.63563177229486,4.785103220972517E-6,9.676113385559461E-4
213,194.59104670695692,4.839546517334359E-6,9.724508850732805E-4
214,194.5463027898614,4.809775092808248E-6,9.772606601660889E-4
215,194.4998630351545,4.819730674179151E-6,9.820803908402681E-4
216,194.45257389873723,4.833504246127655E-6,9.869138950863957E-4
217,194.4036297356671,4.863719311245305E-6,9.91777614397641E-4
218,194.3545121640033,4.836887593805736E-6,9.966145019914467E-4
219,194.30608634649568,4.744130137760459E-6,0.0010013586321292072
220,194.25740055565674,4.7663079747272175E-6,0.0010061249401039343
221,194.20725691116004,4.781512110028344E-6,0.0010109064522139627
222,194.15746262122042,4.780207676741209E-6,0.001015686659890704
223,194.10784424904864,4.693293075539469E-6,0.0010203799529662433
224,194.05789719454043,4.725897981466129E-6,0.0010251058509477095
225,194.00726314570767,4.706248377908564E-6,0.0010298120993256182
226,193.95723072217197,4.654038712186256E-6,0.0010344661380378044
227,193.90718068275655,4.609311295657904E-6,0.0010390754493334623
228,193.85636393888467,4.647955070827096E-6,0.0010437234044042894
229,193.8047019869441,4.710113800334765E-6,0.0010484335182046243
230,193.7533528568067,4.695524806163562E-6,0.0010531290430107877
231,193.7023448531298,4.666955543119481E-6,0.0010577959985539071
232,193.65128764437492,4.638801000382833E-6,0.0010624347995542899
233,193.59889639116795,4.633410673626707E-6,0.0010670682102279167
234,193.54583550922214,4.6397733090511384E-6,0.0010717079835369679
235,193.49239487757862,4.57915846868505E-6,0.0010762871420056529
236,193.4379246432385,4.6388160439997846E-6,0.0010809259580496526
237,193.3824720283573,4.607682570603627E-6,0.0010855336406202561
238,193.32615489485028,4.617213693002781E-6,0.0010901508543132588
239,193.26966107408913,4.614529579929614E-6,0.0010947653838931884
240,193.21244200220576,4.587540327087257E-6,0.0010993529242202757
241,193.1553264181855,4.621657415253835E-6,0.0011039745816355294
242,193.097799125636,4.615216898886115E-6,0.0011085897985344156
243,193.04010786036574,4.692395501789789E-6,0.0011132821940362054
244,192.98122888122765,4.750377836257144E-6,0.0011180325718724625
245,192.9222595170901,4.713132669294035E-6,0.0011227457045417566
246,192.86371865832115,4.728880460782453E-6,0.001127474585002539
247,192.8049696586669,4.7708442716883535E-6,0.0011322454292742275
248,192.7448923503409,4.763805307410985E-6,0.0011370092345816384
249,192.68576729969328,4.7893655964968835E-6,0.0011417986001781353
250,192.6272197407163,4.783898307612943E-6,0.0011465824984857483
251,192.56802422838408,4.823283188993091E-6,0.0011514057816747413
252,192.5078743011436,4.839071245611472E-6,0.0011562448529203527
253,192.44830364233061,4.7673400723902355E-6,0.001161012192992743
254,192.38862243122503,4.696143672140069E-6,0.0011657083366648831
255,192.32941278042702,4.685425692619308E-6,0.0011703937623575025
256,192.27044793287394,4.664606403396677E-6,0.001175058368760899
257,192.21090417417082,4.6439509861113296E-6,0.0011797023197470105
258,192.1502154609311,4.707608879099374E-6,0.0011844099286261098
259,192.08946517930815,4.695258469352499E-6,0.0011891051870954624
260,192.0292687252675,4.700497164671813E-6,0.0011938056842601343
261,191.96962135853317,4.700837906414442E-6,0.0011985065221665487
262,191.90925147263226,4.712179528527771E-6,0.0012032187016950764
263,191.84716629252665,4.793892166769273E-6,0.0012080125938618456
264,191.78452169952098,4.8122778805864245E-6,0.001212824871742432
265,191.7215638109537,4.76699896037543E-6,0.0012175918707028075
266,191.6579704807699,4.8026764409708275E-6,0.0012223945471437783
267,191.59380802222645,4.763435169974875E-6,0.0012271579823137531
268,191.5286837969765,4.744957812638336E-6,0.0012319029401263914
269,191.46364953779155,4.6553325181207E-6,0.0012365582726445122
270,191.39902479950655,4.658492090439314E-6,0.0012412167647349516
271,191.33506903284203,4.659913158641004E-6,0.0012458766778935928
272,191.27135132172864,4.653788150912545E-6,0.0012505304660445052
273,191.20659214239927,4.676864935606197E-6,0.0012552073309801113
274,191.14208471694099,4.6026587652454805E-6,0.0012598099897453568
275,191.07687332078677,4.670500118158365E-6,0.001264480489863515
276,191.01072915070878,4.709110888768693E-6,0.0012691896007522839
277,190.94429362132047,4.708338355203901E-6,0.0012738979391074877
278,190.87679864807518,4.698509910041127E-6,0.0012785964490175288
279,190.80689618652406,4.744883104064136E-6,0.001283341332121593
280,190.73698565872843,4.71651040747634E-6,0.0012880578425290693
281,190.66689816698965,4.7356601686426555E-6,0.001292793502697712
282,190.5975130861279,4.723843134311456E-6,0.0012975173458320234
283,190.52705746439398,4.719805064644173E-6,0.0013022371508966675
284,190.45528780350747,4.740396807995555E-6,0.001306977547704663
285,190.38186459046057,4.774034251656771E-6,0.0013117515819563198
286,190.30810866441266,4.737666659862927E-6,0.0013164892486161827
287,190.23291099064062,4.797460947380086E-6,0.0013212867095635627
288,190.15758514722373,4.7480920950470376E-6,0.0013260348016586097
289,190.0839864539902,4.674025284633031E-6,0.0013307088269432427
290,190.00927535109153,4.679473926506075E-6,0.0013353883008697489
291,189.93606980114194,4.568929360235045E-6,0.0013399572302299839
292,189.86270311107648,4.619391762604921E-6,0.0013445766219925888
293,189.78824417117735,4.6978858968495216E-6,0.0013492745078894383
294,189.7138077312153,4.672237570964517E-6,0.0013539467454604028
295,189.63835309639674,4.706101472633085E-6,0.001358652846933036
296,189.56320189791958,4.700405862828501E-6,0.0013633532527958644
297,189.49000196242446,4.612473349530219E-6,0.0013679657261453945
298,189.41722278408199,4.6149210438185225E-6,0.001372580647189213
299,189.34443211893455,4.637329028935565E-6,0.0013772179762181487
300,189.27084117856353,4.667834873666953E-6,0.0013818858110918157
301,189.19915152414777,4.602919337256233E-6,0.001386488730429072
302,189.12952358564735,4.5980109251438774E-6,0.0013910867413542158
303,189.06002083082518,4.5769681492016675E-6,0.0013956637095034175
304,188.99208460977633,4.564049736925736E-6,0.0014002277592403433
305,188.92370460571112,4.565664613859149E-6,0.0014047934238542025
306,188.8545275153998,4.561095223878128E-6,0.0014093545190780807
307,188.78480350394815,4.591660026798356E-6,0.001413946179104879
