#t,ESS,tempDiff,temp
0,200.00000000000065,0.0,0.0
1,199.9997999999996,1.2331042614187603E-5,1.2331042614187603E-5
2,199.99921618690922,1.2266642221179453E-5,2.4597684835367053E-5
3,199.99826523848108,1.2494639501179846E-5,3.70923243365469E-5
4,199.99695298598925,1.2654408942842815E-5,4.974673327938972E-5
5,199.9953015205907,1.2650911633120563E-5,6.239764491251028E-5
6,199.993314597749,1.217066601026264E-5,7.456831092277292E-5
7,199.99102913082072,1.2118744478602472E-5,8.668705540137539E-5
8,199.98847851680057,1.272468039346181E-5,9.94117357948372E-5
9,199.9856067581143,1.291902912329716E-5,1.1233076491813436E-4
10,199.98244256314058,1.2864276965243326E-5,1.251950418833777E-4
11,199.9789406074549,1.3255277731343514E-5,1.384503196147212E-4
12,199.97529568673502,1.2510270087064171E-5,1.5096058970178537E-4
13,199.97134578972808,1.2748187103528096E-5,1.6370877680531347E-4
14,199.9671299425803,1.2754715472206908E-5,1.764634922775204E-4
15,199.96270660880717,1.2482461493735203E-5,1.889459537712556E-4
16,199.95796094234626,1.2317856774954615E-5,2.012638105462102E-4
17,199.95303189579025,1.2222432607978089E-5,2.1348624315418828E-4
18,199.94797607100801,1.2652423493772497E-5,2.261386666479608E-4
19,199.94267093788147,1.2907046706355424E-5,2.3904571335431622E-4
20,199.93719851758976,1.2817061610950707E-5,2.518627749652669E-4
21,199.93146952752755,1.2570086434937675E-5,2.644328614002046E-4
22,199.92566305582938,1.2244882870987813E-5,2.766777442711924E-4
23,199.91951299399582,1.2356202710161799E-5,2.890339469813542E-4
24,199.91311150488733,1.2184936519392601E-5,3.012188835007468E-4
25,199.9066279246016,1.2424466210283334E-5,3.1364334971103016E-4
26,199.90008286918356,1.2420961441618445E-5,3.260643111526486E-4
27,199.89337018725163,1.2428579144206135E-5,3.3849289029685476E-4
28,199.88643165607377,1.2318713310604783E-5,3.5081160360745956E-4
29,199.87930497122693,1.2741967252223798E-5,3.635535708596834E-4
30,199.8718720040245,1.2625294524773445E-5,3.761788653844568E-4
31,199.86470382816037,1.2621049444238681E-5,3.887999148286955E-4
32,199.8571940633667,1.247664511493642E-5,4.0127655994363193E-4
33,199.84926704882704,1.2281734793718003E-5,4.1355829473734994E-4
34,199.84153128059287,1.2524647329428332E-5,4.2608294206677826E-4
35,199.8338882758721,1.2586372217843712E-5,4.3866931428462197E-4
36,199.82658209027431,1.2893249533831068E-5,4.5156256381845305E-4
37,199.81922211531858,1.305493962523537E-5,4.6461750344368844E-4
38,199.8122007891345,1.2274219208921837E-5,4.768917226526103E-4
39,199.80487544036117,1.2254354549570744E-5,4.89146077202181E-4
40,199.79750495418946,1.2298308346898433E-5,5.014443855490795E-4
41,199.78971484141866,1.19352806945259E-5,5.133796662436054E-4
42,199.782007399721,1.1841715340593625E-5,5.25221381584199E-4
43,199.77471451825795,1.1709373817997789E-5,5.369307554021968E-4
44,199.76675584880945,1.1475506674486658E-5,5.484062620766835E-4
45,199.75893226117446,1.1494159371195527E-5,5.59900421447879E-4
46,199.7510352873978,1.1244859085831535E-5,5.711452805337105E-4
47,199.74309893408466,1.1239500064915331E-5,5.823847805986259E-4
48,199.73488513733594,1.149135165365191E-5,5.938761322522778E-4
49,199.72603307411921,1.1433862111523348E-5,6.053099943638012E-4
50,199.71678619078872,1.1656804938247775E-5,6.16966799302049E-4
51,199.70744450700525,1.177857957166382E-5,6.287453788737128E-4
52,199.69784403974214,1.1387730054355703E-5,6.401331089280685E-4
53,199.6880292606936,1.0824210495442428E-5,6.509573194235109E-4
54,199.67800394018352,1.1037305612829996E-5,6.619946250363409E-4
55,199.66762666739066,1.083193342284187E-5,6.728265584591827E-4
56,199.65699503449602,1.116547234500353E-5,6.839920308041863E-4
57,199.64637182742206,1.1037529851186416E-5,6.950295606553727E-4
58,199.63590235768143,1.0760871495662623E-5,7.057904321510353E-4
59,199.6252163703656,1.0924967727691319E-5,7.167153998787266E-4
60,199.61454238614763,1.078016804438515E-5,7.274955679231117E-4
61,199.6036064218234,1.0842597210846057E-5,7.383381651339578E-4
62,199.59207644707251,1.070408570002426E-5,7.490422508339821E-4
63,199.5803067353044,1.0484156542662117E-5,7.595264073766442E-4
64,199.56803756325718,1.0650964636399535E-5,7.701773720130438E-4
65,199.55530251771512,1.0402043389036538E-5,7.805794154020804E-4
66,199.54273281653303,1.0767102789685594E-5,7.913465181917659E-4
67,199.5304963276911,1.100603754538503E-5,8.02352555737151E-4
68,199.51790774079535,1.0943911712517394E-5,8.132964674496683E-4
69,199.50515059191667,1.0791208005765655E-5,8.240876754554339E-4
70,199.4919570761666,1.0964400219324971E-5,8.350520756747589E-4
71,199.47796842240106,1.1153573539432482E-5,8.462056492141914E-4
72,199.46380492161626,1.0937512611357667E-5,8.57143161825549E-4
73,199.4494849786888,1.1440388974741188E-5,8.685835508002903E-4
74,199.43529719416082,1.1439905321890153E-5,8.800234561221805E-4
75,199.42198429787754,1.1910990999276814E-5,8.919344471214573E-4
76,199.4083272136075,1.185477307927447E-5,9.037892202007318E-4
77,199.39518550421195,1.1936043780810793E-5,9.157252639815426E-4
78,199.38225639267756,1.1436652986885563E-5,9.271619169684282E-4
79,199.36989790017574,1.1527310144264823E-5,9.386892271126931E-4
80,199.35657700012845,1.1397635570884587E-5,9.500868626835776E-4
81,199.34331455602924,1.1430652434692188E-5,9.615175151182698E-4
82,199.33070388145384,1.1401666246915425E-5,9.729191813651853E-4
83,199.31802983804153,1.1149867984044651E-5,9.8406904934923E-4
84,199.3050240610181,1.1339554029681664E-5,9.954086033789116E-4
85,199.292208530748,1.1528160204167786E-5,0.0010069367635830795
86,199.27918366079305,1.0999901596721635E-5,0.001017936665179801
87,199.26602718526476,1.0876964361927704E-5,0.0010288136295417288
88,199.2525178726354,1.0907913479652515E-5,0.0010397215430213813
89,199.23862228598034,1.0984529570266264E-5,0.0010507060725916475
90,199.22481163953066,1.0977948918294864E-5,0.0010616840215099423
91,199.21090916289876,1.058164463404335E-5,0.0010722656661439857
92,199.19669580920726,1.0546538715838412E-5,0.001082812204859824
93,199.18240067741664,1.0443727291699016E-5,0.001093255932151523
94,199.16850504443593,1.0209870780642293E-5,0.0011034658029321653
95,199.15463602357718,1.063579104788064E-5,0.0011141015939800459
96,199.1407089930722,1.0828564782027692E-5,0.0011249301587620735
97,199.12654094939467,1.089370295502684E-5,0.0011358238617171002
98,199.11252519759537,1.0689885726682637E-5,0.001146513747443783
99,199.09770836854167,1.070653288339483E-5,0.0011572202803271777
100,199.08299677878364,1.0874678733323478E-5,0.0011680949590605013
101,199.06797324727378,1.0668712792767698E-5,0.001178763671853269
102,199.05302686053523,1.0651099653469218E-5,0.0011894147715067382
103,199.0376024970558,1.0470297507721E-5,0.0011998850690144592
104,199.02259879711235,1.0499410711124436E-5,0.0012103844797255836
105,199.0082917043714,1.0672045331676144E-5,0.0012210565250572597
106,198.99398596269606,1.0521579218302026E-5,0.0012315781042755618
107,198.97920381408665,1.0231114980733621E-5,0.0012418092192562954
108,198.96474756163227,1.0183134448605141E-5,0.0012519923537049006
109,198.95018777243135,1.0174720565767594E-5,0.0012621670742706682
110,198.9356876472474,1.015316421013174E-5,0.0012723202384808
111,198.92119142654596,1.030957326478886E-5,0.001282629811745589
112,198.90697584698617,1.0454458800305826E-5,0.0012930842705458948
113,198.8933432949762,1.035060605126689E-5,0.0013034348765971616
114,198.8795237701023,1.0112621654108035E-5,0.0013135474982512696
115,198.86486445555423,9.958289974924923E-6,0.0013235057882261946
116,198.85083560978367,1.0028346074731499E-5,0.001333534134300926
117,198.83557510182462,1.0193010841110874E-5,0.001343727145142037
118,198.8192756388702,1.0435289220845342E-5,0.0013541624343628822
119,198.80382990669094,1.0300307797788975E-5,0.0013644627421606711
120,198.78868043167196,1.02732311609299E-5,0.001374735973321601
121,198.77341017179904,1.0549119199215248E-5,0.0013852850925208163
122,198.75831734632632,1.0666625609565824E-5,0.001395951718130382
123,198.74209299022496,1.066594783494689E-5,0.0014066176659653289
124,198.72539812135594,1.0684616781506722E-5,0.0014173022827468356
125,198.70853368424818,1.0606812386095748E-5,0.0014279090951329313
126,198.6915578009654,1.0639833037962891E-5,0.001438548928170894
127,198.67451140283907,1.068964008279554E-5,0.0014492385682536896
128,198.6565165451574,1.0655021721292254E-5,0.001459893589974982
129,198.63903647417186,1.071984054862254E-5,0.0014706134305236046
130,198.62136665821942,1.0551734527476895E-5,0.0014811651650510815
131,198.60392218682097,1.065860195090918E-5,0.0014918237670019908
132,198.58627703607468,1.0847064155598351E-5,0.0015026708311575892
133,198.5682308438175,1.0680606898581889E-5,0.001513351438056171
134,198.5495276085222,1.0722511130374996E-5,0.001524073949186546
135,198.53001503944728,1.0438655916300336E-5,0.0015345126051028463
136,198.51021020273217,1.0544158918680628E-5,0.001545056764021527
137,198.48959085089544,1.0498404274660195E-5,0.0015555551682961872
138,198.46880474847933,1.072620804975356E-5,0.0015662813763459408
139,198.44805682025492,1.0619608864004771E-5,0.0015769009852099455
140,198.4278731165821,1.0666167176734325E-5,0.00158756715238668
141,198.4076779957588,1.064781547931458E-5,0.0015982149678659945
142,198.3876127129228,1.0701071349335106E-5,0.0016089160392153297
143,198.36849351797676,1.0861459777043332E-5,0.001619777498992373
144,198.34922797025715,1.085635449258733E-5,0.0016306338534849603
145,198.33052727219234,1.0690143640735622E-5,0.001641323997125696
146,198.3119692007961,1.0771929535185755E-5,0.0016520959266608816
147,198.29216574046512,1.0656569499982277E-5,0.001662752496160864
148,198.2724736650476,1.063871412294412E-5,0.001673391210283808
149,198.25279203916074,1.0713925968024246E-5,0.0016841051362518323
150,198.23292668724736,1.0765196682773645E-5,0.001694870332934606
151,198.21323211265423,1.0792745432358155E-5,0.001705663078366964
152,198.19314815533994,1.0743651604944466E-5,0.0017164067299719084
153,198.17255707347698,1.071881090996572E-5,0.0017271255408818742
154,198.1514530415661,1.1313554830867019E-5,0.0017384390957127412
155,198.12995621237025,1.1452178369522723E-5,0.0017498912740822638
156,198.10827694880868,1.1557454863272046E-5,0.0017614487289455358
157,198.08663486546521,1.1625047940828898E-5,0.0017730737768863647
158,198.06441896271744,1.1718784737732927E-5,0.0017847925616240976
159,198.04187888016324,1.208364275314359E-5,0.0017968762043772412
160,198.0202267755214,1.1724279380129166E-5,0.0018086004837573704
161,197.9986543629889,1.1968614251230605E-5,0.001820569098008601
162,197.97622909749617,1.2157594549883795E-5,0.0018327266925584848
163,197.95491314233607,1.1997577763964257E-5,0.001844724270322449
164,197.932745360116,1.2097930841381904E-5,0.0018568222011638308
165,197.91202982894072,1.2524675266820414E-5,0.0018693468764306512
166,197.8913918023571,1.2436313453817065E-5,0.0018817831898844683
167,197.87125869885713,1.219718630037915E-5,0.0018939803761848476
168,197.85052625882264,1.1911371709698891E-5,0.0019058917478945465
169,197.8292607761166,1.1689001726693032E-5,0.0019175807496212395
170,197.80932498231172,1.1530221752159415E-5,0.001929110971373399
171,197.78912613569724,1.1874472013042152E-5,0.0019409854433864412
172,197.76818463685964,1.150218334751373E-5,0.0019524876267339548
173,197.7467974046927,1.1277167677899296E-5,0.0019637647944118542
174,197.72530460518084,1.1157553645045943E-5,0.0019749223480569
175,197.7031920909255,1.0816933252148859E-5,0.0019857392813090492
176,197.6803849750073,1.0836812265105316E-5,0.0019965760935741544
177,197.65841260762386,1.0885426606559972E-5,0.0020074615201807144
178,197.63584300376533,1.0991844337166771E-5,0.002018453364517881
179,197.61330303655652,1.0868381195950714E-5,0.002029321745713832
180,197.59029416300754,1.0723773021236407E-5,0.0020400455187350682
181,197.56657305733486,1.0920319763896223E-5,0.0020509658384989644
182,197.5423661034514,1.1218610114915151E-5,0.0020621844486138794
183,197.51993459145785,1.1083848591094527E-5,0.002073268297204974
184,197.49794719540208,1.0873168100415461E-5,0.002084141465305389
185,197.47652172589505,1.0722312107073045E-5,0.0020948637774124623
186,197.45594360944676,1.1076245240741359E-5,0.0021059400226532037
187,197.43593831995722,1.1058961001087569E-5,0.0021169989836542914
188,197.41573129556545,1.1109971908715355E-5,0.002128108955563007
189,197.39802533105845,1.0872755281064863E-5,0.002138981710844072
190,197.38073250357735,1.0582459727570985E-5,0.002149564170571643
191,197.362564718475,1.0369415109887404E-5,0.0021599335856815303
192,197.34489495548752,1.0599744665190034E-5,0.0021705333303467206
193,197.32771246307368,1.0768080667344777E-5,0.0021813014110140653
194,197.30953885647307,1.1295001537375996E-5,0.002192596412551441
195,197.29179142966882,1.1358445344221006E-5,0.0022039548578956622
196,197.27248237961348,1.112867331487032E-5,0.0022150835312105327
197,197.25357614204515,1.1426480581602832E-5,0.0022265100117921355
198,197.23528838195605,1.1462616490026993E-5,0.0022379726282821624
199,197.21647288644834,1.1417817991554331E-5,0.0022493904462737167
200,197.19725351663442,1.146737469311554E-5,0.002260857820966832
201,197.17778224444888,1.1296738573050309E-5,0.0022721545595398825
202,197.15910294851253,1.111200707234134E-5,0.0022832665666122237
203,197.14112977701274,1.1026718587197696E-5,0.0022942932851994216
204,197.1231947102756,1.1042591748748969E-5,0.0023053358769481707
205,197.10550264671366,1.0980358289268044E-5,0.0023163162352374386
206,197.08832882422564,1.1169047464350182E-5,0.002327485282701789
207,197.0697542432443,1.1189328680623E-5,0.002338674611382412
208,197.05109060585568,1.1260704645116459E-5,0.0023499353160275284
209,197.0320629850822,1.109758568877945E-5,0.002361032901716308
210,197.01286979697775,1.130740084518284E-5,0.0023723403025614907
211,196.99548948610402,1.11568547944548E-5,0.0023834971573559456
212,196.97830607982178,1.1214947446612963E-5,0.0023947121048025584
213,196.95967818451857,1.1521274142632843E-5,0.002406233378945191
214,196.93970624778254,1.1264940107233714E-5,0.002417498319052425
215,196.9187056427603,1.156546082245638E-5,0.0024290637798748812
216,196.89819227796622,1.1298302691339756E-5,0.002440362082566221
217,196.87848663782492,1.1076195183210208E-5,0.0024514382777494313
218,196.85937215517876,1.1203120047880656E-5,0.002462641397797312
219,196.8403470784268,1.1121217023085943E-5,0.0024737626148203977
220,196.82090955462027,1.095421191634602E-5,0.002484716826736744
221,196.80193543944935,1.095458557017453E-5,0.0024956714123069183
222,196.78216856455595,1.0521978379301284E-5,0.00250619339068622
223,196.76316876716035,1.0297476702911914E-5,0.0025164908673891316
224,196.74427847022287,1.0536598571907325E-5,0.0025270274659610387
225,196.72454557538174,1.0689758172479617E-5,0.0025377172241335183
226,196.7060106279406,1.079365787665222E-5,0.0025485108820101706
227,196.68668210967377,1.0777970850800576E-5,0.002559288852860971
228,196.66668274853322,1.0760605220984505E-5,0.002570049458081955
229,196.64738924033503,1.049969929640876E-5,0.002580549157378364
230,196.62821174250217,1.0239519564130685E-5,0.002590788676942495
231,196.60857676988005,1.0325947598288708E-5,0.0026011146245407835
232,196.5884900443229,1.0440735237350655E-5,0.002611555359778134
233,196.56732717820816,1.045923340589945E-5,0.0026220145931840338
234,196.54600518906653,1.0316282865399E-5,0.0026323308760494326
235,196.52458849723786,1.0313094100092775E-5,0.0026426439701495255
236,196.50415966198105,1.001366268504952E-5,0.0026526576328345748
237,196.48423454491754,1.0090783565154501E-5,0.0026627484163997293
238,196.46439909577705,1.009187376570891E-5,0.0026728402901654382
239,196.4455992436944,1.0466007052432836E-5,0.002683306297217871
240,196.42780064167798,1.061445957630148E-5,0.0026939207567941723
241,196.4097151572153,1.0491325851453786E-5,0.0027044120826456262
242,196.3916818966924,1.0384717634367058E-5,0.002714796800279993
243,196.37447630885262,1.029814067723725E-5,0.0027250949409572305
244,196.35622167205443,1.0543337765119394E-5,0.0027356382787223498
245,196.3383012916506,1.055250490784104E-5,0.0027461907836301906
246,196.32208633031868,1.0735056504379268E-5,0.00275692584013457
247,196.3076506962254,1.0808734220378127E-5,0.002767734574354948
248,196.29303172194727,1.0426431010060895E-5,0.002778161005365009
249,196.27837171412898,1.0584936540827451E-5,0.0027887459419058368
250,196.2629864579723,1.063567362265929E-5,0.002799381615528496
251,196.2473319369682,1.0663429920580958E-5,0.002810045045449077
252,196.23100442279085,1.0595258711069636E-5,0.0028206403041601464
253,196.21547070406913,1.0652748575581429E-5,0.002831293052735728
254,196.1987660360285,1.0594712170266323E-5,0.0028418877649059944
255,196.18268977412018,1.0692146854382987E-5,0.0028525799117603773
256,196.16567764391183,1.0399349731918672E-5,0.002862979261492296
257,196.14957183480692,1.052136597111697E-5,0.002873500627463413
258,196.13140602335673,1.0581101128424129E-5,0.002884081728591837
259,196.11360600484934,1.0479122489918359E-5,0.0028945608510817554
260,196.09658281412476,1.0424219922971665E-5,0.002904985071004727
261,196.07895741975028,1.0495797997684002E-5,0.002915480869002411
262,196.0619075299073,1.0587502664185817E-5,0.002926068371666597
263,196.04517671396707,1.040113630599489E-5,0.0029364695079725917
264,196.028000545433,1.0372685648120472E-5,0.002946842193620712
265,196.01173205938616,1.0372347394804099E-5,0.0029572145410155164
266,195.99391067187906,1.0594822588450308E-5,0.0029678093636039665
267,195.9774509557896,1.0519078603640729E-5,0.002978328442207607
268,195.96092179043097,1.0833134372544044E-5,0.002989161576580151
269,195.945024325664,1.094370044776334E-5,0.0030001052770279144
270,195.92883192854563,1.0624444489964541E-5,0.003010729721517879
271,195.9104886168379,1.0214398600697172E-5,0.0030209441201185763
272,195.89152199808862,1.0020581690136963E-5,0.0030309647018087133
273,195.87507138144855,1.0136469346042143E-5,0.0030411011711547553
274,195.857661721114,1.0279649227683515E-5,0.003051380820382439
275,195.83855349459373,1.0300928207125815E-5,0.0030616817485895646
276,195.82013965641582,1.0314787441481427E-5,0.003071996536031046
277,195.80185008836412,1.0339530751172992E-5,0.003082336066782219
278,195.7831170056911,1.0172107287096654E-5,0.0030925081740693153
279,195.76606564971297,9.913302551900837E-6,0.003102421476621216
280,195.75031174430447,9.798952697030278E-6,0.0031122204293182465
281,195.73412635402596,9.827677741751432E-6,0.003122048107059998
282,195.71818958290325,9.948963177935115E-6,0.003131997070237933
283,195.7011611551767,1.0049208176729254E-5,0.0031420462784146623
284,195.68482964561815,1.0131770824510429E-5,0.003152178049239173
285,195.66703673933395,1.0064403951326016E-5,0.003162242453190499
286,195.65006696234363,1.0152518570206386E-5,0.0031723949717607056
287,195.63504200889977,1.028060229328178E-5,0.0031826755740539873
288,195.61919870417975,1.0135849941357938E-5,0.003192811423995345
289,195.60282266671067,1.0116718471056915E-5,0.0032029281424664022
290,195.5869373970576,1.0155414048457646E-5,0.00321308355651486
291,195.5704040299905,1.0573597128260102E-5,0.0032236571536431204
292,195.55212463607796,1.0560175736608854E-5,0.0032342173293797294
293,195.53241779424442,1.0335918640820211E-5,0.0032445532480205497
294,195.512319305865,1.0822176218518343E-5,0.003255375424239068
295,195.4927292709249,1.0517314604863205E-5,0.003265892738843931
296,195.47280110906556,1.0569827584268984E-5,0.0032764625664282003
297,195.45295742694753,1.0427392127965885E-5,0.003286889958556166
298,195.4336440980193,1.0265001043668406E-5,0.0032971549595998345
299,195.41577009099962,1.037028445201042E-5,0.003307525244051845
300,195.3979527043187,1.0405135531868819E-5,0.003317930379583714
301,195.38092541429555,1.0281772809384578E-5,0.0033282121523930987
302,195.36363296632953,1.0471753759885676E-5,0.0033386839061529845
303,195.34815758768514,1.0402951775978092E-5,0.0033490868579289625
304,195.3326967860916,1.045191896533316E-5,0.0033595387768942954
