#t,ESS,tempDiff,temp
0,999.9999999999848,0.0,0.0
1,999.9899999999973,3.085104110856246E-5,3.085104110856246E-5
2,999.9603637430273,3.0765400159892006E-5,6.161644126845446E-5
3,999.9112993639473,3.058314132546454E-5,9.219958259391899E-5
4,999.8431228637174,3.073329833723366E-5,1.2293288093115265E-4
5,999.7563368847519,3.079349041491968E-5,1.5372637134607233E-4
6,999.6511483753619,3.083081571424535E-5,1.8455718706031766E-4
7,999.5280356623952,3.075642435831694E-5,2.153136114186346E-4
8,999.3870460344434,3.062376328998126E-5,2.4593737470861586E-4
9,999.228671409626,3.04789719546666E-5,2.764163466632825E-4
10,999.0528177969265,3.0718629251998225E-5,3.071349759152807E-4
11,998.8602539056255,3.065849562225893E-5,3.377934715375396E-4
12,998.6509950780558,3.06343626293224E-5,3.68427834166862E-4
13,998.4254098053779,3.0920167818616604E-5,3.993480019854786E-4
14,998.1835514066902,3.069464830594319E-5,4.300426502914218E-4
15,997.9268947323978,3.092909691428148E-5,4.6097174720570325E-4
16,997.6538644967225,3.104243236050516E-5,4.920141795662084E-4
17,997.3652480453436,3.0968583020817726E-5,5.229827625870261E-4
18,997.0611454439633,3.0822969083623546E-5,5.538057316706497E-4
19,996.741161272855,3.066641442351177E-5,5.844721460941615E-4
20,996.4081807836199,3.0278187205755286E-5,6.147503332999167E-4
21,996.058954112206,2.9928183886413592E-5,6.446785171863303E-4
22,995.6933395978916,2.9943231969542578E-5,6.746217491558729E-4
23,995.3131990447171,3.0137680702931416E-5,7.047594298588043E-4
24,994.9207976244228,2.9993340114543187E-5,7.347527699733474E-4
25,994.5126496384826,2.999779334265737E-5,7.647505633160048E-4
26,994.0905439527198,2.9793722409933368E-5,7.945442857259381E-4
27,993.657132905273,2.9798188392048226E-5,8.243424741179863E-4
28,993.2094105101704,2.97101370480303E-5,8.540526111660167E-4
29,992.7465622754646,2.9699750090147816E-5,8.837523612561644E-4
30,992.2699314083541,2.9854563078026885E-5,9.136069243341913E-4
31,991.7838961349786,2.9717649182739348E-5,9.433245735169306E-4
32,991.2840875481407,2.9795182223870333E-5,9.731197557408009E-4
33,990.7682308533459,2.98144735516368E-5,0.0010029342292924377
34,990.2414763056688,2.99672717740148E-5,0.0010329015010664526
35,989.7007013799359,2.9679667397195456E-5,0.001062581168463648
36,989.1509273026211,2.9358147199509654E-5,0.0010919393156631576
37,988.5861327154937,2.935288016513897E-5,0.0011212921958282966
38,988.0102974449989,2.9633284207473662E-5,0.0011509254800357702
39,987.4232840191085,2.9338067599263632E-5,0.0011802635476350339
40,986.8247969710355,2.9286569174207176E-5,0.001209550116809241
41,986.2170565233026,2.9128919320420855E-5,0.0012386790361296619
42,985.5992690486466,2.8998521745000498E-5,0.0012676775578746623
43,984.9692187494671,2.933041275396308E-5,0.0012970079706286254
44,984.329590298645,2.9441476791990422E-5,0.001326449447420616
45,983.6792300502228,2.8951244954868714E-5,0.0013554006923754847
46,983.0161713533041,2.8898797126497063E-5,0.0013842994895019818
47,982.342669791761,2.8704189334976267E-5,0.0014130036788369581
48,981.6545527320542,2.8632230875067046E-5,0.0014416359097120252
49,980.9576328810647,2.8841450888043794E-5,0.001470477360600069
50,980.2488511972998,2.867856635530193E-5,0.001499155926955371
51,979.5314080626446,2.879388099703774E-5,0.0015279498079524088
52,978.7977275548002,2.8654435624811997E-5,0.0015566042435772207
53,978.0473096711298,2.8629931864640126E-5,0.001585234175441861
54,977.2792776551044,2.862091436297828E-5,0.0016138550898048393
55,976.5000079318642,2.8473246111034428E-5,0.0016423283359158736
56,975.7134627170207,2.8856228559029358E-5,0.001671184564474903
57,974.9234412634368,2.8748019748268894E-5,0.001699932584223172
58,974.128772894383,2.851574860828827E-5,0.0017284483328314601
59,973.3242470481797,2.8643394602829118E-5,0.0017570917274342894
60,972.5161812489547,2.866885483408593E-5,0.0017857605822683754
61,971.7005159491298,2.8652909754637546E-5,0.001814413492023013
62,970.8716838672178,2.86298371396068E-5,0.0018430433291626198
63,970.030948033413,2.8484407855607103E-5,0.001871527737018227
64,969.1762320808098,2.8781278687661982E-5,0.001900309015705889
65,968.3183402686342,2.883370841996776E-5,0.0019291427241258567
66,967.4483075970862,2.8856020892267188E-5,0.001957998745018124
67,966.5724004531565,2.9032326715675123E-5,0.001987031071733799
68,965.6885441719656,2.9072317086335964E-5,0.002016103388820135
69,964.799033853751,2.8978182585365094E-5,0.0020450815714055
70,963.8951054419697,2.891682561895254E-5,0.0020739983970244525
71,962.9902572797769,2.87708540954622E-5,0.002102769251119915
72,962.0862324313955,2.8701934996339296E-5,0.002131471186116254
73,961.1735183837069,2.8586244915722696E-5,0.002160057431031977
74,960.2531126448304,2.8563011930111017E-5,0.002188620442962088
75,959.3226504579804,2.8396766558560382E-5,0.0022170172095206486
76,958.3877188684544,2.857063249446202E-5,0.0022455878420151107
77,957.4509433803512,2.8616928547643847E-5,0.0022742047705627544
78,956.500488713507,2.8474253353181474E-5,0.002302679023915936
79,955.5418801361647,2.8547506785866462E-5,0.0023312265307018024
80,954.5779576787239,2.8628371148996368E-5,0.0023598549018507987
81,953.620305253794,2.8337515753270634E-5,0.0023881924176040693
82,952.647577104669,2.841417526329561E-5,0.002416606592867365
83,951.6727088687813,2.8786751930660574E-5,0.0024453933447980253
84,950.6932645911525,2.8834167092110824E-5,0.002474227511890136
85,949.7112042329768,2.9293365277593236E-5,0.0025035208771677295
86,948.7319586611588,2.932953638357832E-5,0.002532850413551308
87,947.7527208629285,2.9453144316593097E-5,0.002562303557867901
88,946.7663496776216,2.9579663984843147E-5,0.002591883221852744
89,945.7780749936692,2.9577124132668298E-5,0.0026214603459854126
90,944.7959696155982,2.954739882153916E-5,0.0026510077448069517
91,943.8049302890537,2.9255050158764536E-5,0.002680262794965716
92,942.8096407850974,2.9168952858196926E-5,0.002709431747823913
93,941.8036108688397,2.9101287422594624E-5,0.0027385330352465076
94,940.8077332147435,2.9196037499875712E-5,0.002767729072746383
95,939.7970801273718,2.9277621978656117E-5,0.002797006694725039
96,938.7868413037377,2.93454882894669E-5,0.002826352183014506
97,937.77084167726,2.92827341780639E-5,0.0028556349171925703
98,936.7520149532261,2.922883279389719E-5,0.0028848637499864676
99,935.7253130880346,2.907692892034307E-5,0.002913940678906811
100,934.6922522682848,2.8947553710888012E-5,0.002942888232617699
101,933.6512388291701,2.885614406353922E-5,0.002971744376681238
102,932.5987118209191,2.8661088932310205E-5,0.003000405465613548
103,931.5431643757539,2.8509030097671352E-5,0.003028914495711219
104,930.4820033106764,2.856637879764631E-5,0.0030574808745088655
105,929.4118999381087,2.8744390394063415E-5,0.0030862252649029288
106,928.3499660230177,2.896292671940317E-5,0.003115188191622332
107,927.2814955266314,2.9340841799735326E-5,0.0031445290334220673
108,926.1996445984347,2.9536719961907406E-5,0.0031740657533839748
109,925.1096795590887,2.9320679960547764E-5,0.0032033864333445225
110,924.0183721706729,2.912579419935054E-5,0.003232512227543873
111,922.9220155818523,2.8917289713740758E-5,0.0032614295172576136
112,921.8346449491914,2.8981594744736853E-5,0.0032904111120023506
113,920.7435872664432,2.912872195373308E-5,0.0033195398339560837
114,919.6438886667894,2.9171853819963847E-5,0.0033487116877760474
115,918.5365382501241,2.9343941361219695E-5,0.003378055629137267
116,917.4266636429512,2.9142524192693683E-5,0.003407198153329961
117,916.3130975139691,2.8942717441562358E-5,0.0034361408707715233
118,915.1995205753794,2.9141769829451E-5,0.0034652826406009743
119,914.0885213006231,2.9092618705733095E-5,0.0034943752593067073
120,912.9687345345702,2.9129065644404214E-5,0.0035235043249511114
121,911.8376072866001,2.9296448497432673E-5,0.003552800773448544
122,910.6992635266473,2.9290161453172523E-5,0.0035820909349017164
123,909.562489856816,2.9577406710975626E-5,0.003611668341612692
124,908.4430678895143,2.954378852514675E-5,0.0036412121301378384
125,907.326157187085,2.9528410681927605E-5,0.003670740540819766
126,906.1888069114127,2.962482761780948E-5,0.0037003653684375758
127,905.0563995674347,2.9442066896830476E-5,0.003729807435334406
128,903.9258511062953,2.9430184321348336E-5,0.0037592376196557546
129,902.7963729393662,2.9668648894035927E-5,0.0037889062685497903
130,901.6640303538996,2.960943113084222E-5,0.0038185156996806326
131,900.5287684746909,2.975153407277626E-5,0.003848267233753409
132,899.3826664324843,2.9499995241084142E-5,0.003877767228994493
133,898.2376960546168,2.9379768384209136E-5,0.003907146997378702
134,897.0962454796859,2.952622784217485E-5,0.0039366732252208774
135,895.9512474546796,2.9653178181237193E-5,0.003966326403402115
136,894.8057434985445,2.9781905943323918E-5,0.003996108309345439
137,893.6507016056089,3.0231513292031426E-5,0.004026339822637471
138,892.5099007370792,3.0455512930404797E-5,0.004056795335567876
139,891.3630745841044,3.052888831623387E-5,0.00408732422388411
140,890.2144845858611,3.0233011611156366E-5,0.0041175572354952665
141,889.0606874795815,3.0345947299670396E-5,0.004147903182794937
142,887.9127480064615,3.0228260958763837E-5,0.0041781314437537
143,886.7476632014402,3.0167461482088902E-5,0.004208298905235789
144,885.5790219016677,3.017173881284098E-5,0.00423847064404863
145,884.4049433218581,3.0063158978193582E-5,0.0042685338030268236
146,883.2287810979346,2.9936777687394126E-5,0.004298470580714218
147,882.0322612965601,2.960249612621158E-5,0.004328073076840429
148,880.8391293661462,2.9428790010373763E-5,0.004357501866850803
149,879.6094114385278,2.961521651844662E-5,0.004387117083369249
150,878.3710979316248,2.9661625829586822E-5,0.0044167787091988365
151,877.1335027018491,2.9896534184564153E-5,0.004446675243383401
152,875.9066822052202,2.9588188115864078E-5,0.0044762634314992646
153,874.6805337046153,2.9508758006229327E-5,0.004505772189505494
154,873.4580337215733,2.9503683494168204E-5,0.004535275872999662
155,872.2214228267871,2.9333024987099404E-5,0.004564608897986762
156,870.9822395199451,2.9253328560532825E-5,0.004593862226547295
157,869.7332653600217,2.9370681504952913E-5,0.004623232908052248
158,868.4934504572218,2.9120070041302964E-5,0.004652352978093551
159,867.2356190786164,2.9025365235343665E-5,0.004681378343328895
160,866.0108252322826,2.9529008342161053E-5,0.004710907351671055
161,864.7841173010436,2.936854350986118E-5,0.004740275895180917
162,863.5357681331235,2.9724484343215795E-5,0.0047700003795241325
163,862.2878302286714,2.9635646485032787E-5,0.004799636026009166
164,861.0380202889904,2.9525853278927285E-5,0.004829161879288093
165,859.7836878140445,2.939002458946484E-5,0.004858551903877558
166,858.5449287000131,2.952066147112394E-5,0.004888072565348682
167,857.3020254666703,2.932745764797296E-5,0.0049174000229966555
168,856.042900643429,2.9178090850031495E-5,0.004946578113846687
169,854.7980684655216,2.920398818008769E-5,0.004975782102026775
170,853.5386149213003,2.8784489645929414E-5,0.005004566591672704
171,852.2760615376242,2.8624190087173153E-5,0.005033190781759877
172,851.0255386200216,2.8736654891095445E-5,0.005061927436650972
173,849.7615136707643,2.8711924040142105E-5,0.005090639360691114
174,848.467715507853,2.881828993310668E-5,0.005119457650624221
175,847.1806923601014,2.862491435028342E-5,0.005148082564974505
176,845.8807811245196,2.8269821160397014E-5,0.005176352386134901
177,844.5802681143349,2.8332312766391185E-5,0.005204684698901293
178,843.2747493067269,2.8676461170028416E-5,0.005233361160071321
179,841.97679182633,2.90081495536856E-5,0.005262369309625007
180,840.6898664237692,2.89839681182021E-5,0.005291353277743209
181,839.4190124249794,2.8832891634228542E-5,0.005320186169377438
182,838.1487143550338,2.871072903587344E-5,0.005348896898413311
183,836.8683042534302,2.8634380560959712E-5,0.005377531278974271
184,835.5941065647033,2.866777943311735E-5,0.005406199058407389
185,834.3292078016805,2.8875886055664804E-5,0.005435074944463054
186,833.0649666123887,2.902884147370116E-5,0.005464103785936755
187,831.7964528646685,2.8884088276145186E-5,0.0054929878742128995
188,830.526973289402,2.9016239997087153E-5,0.005522004114209987
189,829.2637480083334,2.8738450134339404E-5,0.005550742564344326
190,828.0270354400988,2.8486820679818077E-5,0.005579229385024143
191,826.7935575879646,2.8279701328346656E-5,0.00560750908635249
192,825.5570858122213,2.8334688996301324E-5,0.005635843775348792
193,824.2957571839187,2.8277717080981522E-5,0.005664121492429773
194,823.0299285368757,2.813584824788665E-5,0.00569225734067766
195,821.752128434716,2.812395344366489E-5,0.005720381294121325
196,820.4496750361469,2.8272301481233183E-5,0.005748653595602558
197,819.1404915472424,2.8417971385382815E-5,0.005777071566987941
198,817.8021910938972,2.8114448864260047E-5,0.005805186015852201
199,816.4655324806838,2.8062364980993006E-5,0.005833248380833194
200,815.1254252211075,2.7988285900940475E-5,0.005861236666734135
201,813.7909319789621,2.7995803450357368E-5,0.005889232470184492
202,812.4632924964042,2.781347783433665E-5,0.005917045948018829
203,811.1254088457797,2.773140076588039E-5,0.0059447773487847095
204,809.7901927160354,2.7599225304301E-5,0.00597237657408901
205,808.454084904651,2.761653769724287E-5,0.005999993111786253
206,807.1150778369076,2.7459026298736137E-5,0.00602745213808499
207,805.7739952723967,2.7259344031195026E-5,0.006054711482116185
208,804.4105578056406,2.7253580636431698E-5,0.006081965062752616
209,803.0568295511016,2.7520671320222503E-5,0.0061094857340728385
210,801.6836166203512,2.741795999617493E-5,0.006136903694069013
211,800.3060251530268,2.7218904527114196E-5,0.006164122598596128
212,798.9219389104873,2.6916778858601377E-5,0.006191039377454729
213,797.5503046774792,2.6949833048918092E-5,0.006217989210503647
214,796.1779033040464,2.6841683249439966E-5,0.006244830893753087
215,794.79146722802,2.6898995762784134E-5,0.006271729889515871
216,793.417658209264,2.6985177022695964E-5,0.006298715066538567
217,792.0547666928417,2.7058566729388273E-5,0.006325773633267955
218,790.7131339022128,2.737493516158909E-5,0.006353148568429544
219,789.3551600572341,2.74953554999802E-5,0.006380643923929524
220,788.0082452794609,2.754117481076523E-5,0.00640818509874029
221,786.6549279186901,2.7558439791841755E-5,0.006435743538532131
222,785.3163470056242,2.749911877025686E-5,0.006463242657302388
223,784.033603542901,2.7643263477254316E-5,0.006490885920779643
224,782.7342713170499,2.7724405040291404E-5,0.006518610325819934
225,781.4332416522817,2.7628041877533827E-5,0.006546238367697467
226,780.1395544180544,2.741972912609946E-5,0.006573658096823567
227,778.85030642365,2.746049075225744E-5,0.006601118587575824
228,777.545111522855,2.773356348007914E-5,0.006628852151055903
229,776.2706304052446,2.7913834865367738E-5,0.006656765985921271
230,774.987621244181,2.778354398085319E-5,0.0066845495299021245
231,773.7121461419782,2.7633364268281518E-5,0.006712182894170406
232,772.4496086914677,2.775057812506078E-5,0.006739933472295467
233,771.1824467455347,2.782743620440869E-5,0.006767760908499875
234,769.8519385582788,2.778636031919052E-5,0.006795547268819066
235,768.5091775445545,2.7757153064907868E-5,0.006823304421883974
236,767.1828684658614,2.777817924485316E-5,0.006851082601128827
237,765.8732585615028,2.7608588166212058E-5,0.006878691189295039
238,764.5717076780212,2.7449262710621094E-5,0.00690614045200566
239,763.2872512432613,2.74551456677369E-5,0.006933595597673397
240,761.9983457523812,2.7733417927017514E-5,0.006961329015600415
241,760.7059878862874,2.7740448789393183E-5,0.0069890694643898075
242,759.4226693613799,2.7629058924472865E-5,0.00701669852331428
243,758.1159181565807,2.7464733566569817E-5,0.00704416325688085
244,756.8043919311145,2.733101306759533E-5,0.007071494269948445
245,755.5013629184704,2.7251099102790943E-5,0.007098745369051236
246,754.1906849170553,2.7345204840474742E-5,0.007126090573891711
247,752.8973460098559,2.7261212758985223E-5,0.0071533517866506965
248,751.6124673899681,2.7268212863357763E-5,0.007180619999514054
249,750.3352002816272,2.7355529858057432E-5,0.007207975529372111
250,749.0567065179055,2.7564199023016972E-5,0.007235539728395128
251,747.7961207516124,2.7525340449273534E-5,0.0072630650688444015
252,746.5773572640027,2.7745349410706243E-5,0.007290810418255108
253,745.3603490867672,2.7797787651363506E-5,0.0073186082059064714
254,744.1308627734576,2.7707733320499194E-5,0.0073463159392269705
255,742.9142315012874,2.7739910605347033E-5,0.007374055849832317
256,741.7234530608961,2.7896228886245073E-5,0.007401952078718563
257,740.5744778602557,2.8341082372032255E-5,0.007430293161090595
258,739.4287000248416,2.8579163155922975E-5,0.007458872324246518
259,738.3011413159941,2.8590935714074802E-5,0.007487463259960593
260,737.1650237171793,2.8585619275067825E-5,0.007516048879235661
261,736.0409556340485,2.868720127129296E-5,0.007544736080506954
262,734.8850475562122,2.8753567077397156E-5,0.007573489647584352
263,733.7516587852514,2.8835607537245234E-5,0.007602325255121597
264,732.6185277563468,2.8566584595888276E-5,0.007630891839717485
265,731.5495326607451,2.845278352459716E-5,0.007659344623242081
266,730.4246747999625,2.8333219423232057E-5,0.007687677842665314
267,729.3169609507783,2.8325349203900992E-5,0.007716003191869215
268,728.2106741782924,2.8503479911489127E-5,0.007744506671780704
269,727.1143113531016,2.8402880292278843E-5,0.0077729095520729825
270,726.0004038543592,2.8404694095511723E-5,0.007801314246168495
271,724.9207425754097,2.85165033150327E-5,0.007829830749483527
272,723.8521157457345,2.840053885434662E-5,0.007858231288337873
273,722.7474319599679,2.846839791138161E-5,0.007886699686249254
274,721.6562516128027,2.8538237479140594E-5,0.007915237923728394
275,720.5685247141398,2.8227944807783282E-5,0.007943465868536177
276,719.4067662744924,2.7981914787198705E-5,0.007971447783323376
277,718.2187567224903,2.7854339911125974E-5,0.007999302123234502
278,717.0259806171395,2.786365424365083E-5,0.008027165777478152
279,715.8471565834401,2.780130346001599E-5,0.008054967080938169
280,714.6689387866271,2.769664881832842E-5,0.008082663729756497
281,713.4931148710461,2.7697571439323848E-5,0.00811036130119582
282,712.3071638127323,2.7796282892753147E-5,0.008138157584088573
283,711.105539349878,2.8036424844319573E-5,0.008166194008932893
284,709.9197939550635,2.809295784591656E-5,0.008194286966778808
285,708.7508280642893,2.817992687985639E-5,0.008222466893658664
286,707.6248802098615,2.8101528020519585E-5,0.008250568421679183
287,706.5105876006323,2.820036822576816E-5,0.008278768789904951
288,705.3837365588848,2.82590102667972E-5,0.008307027800171748
289,704.2428322879213,2.824110171731969E-5,0.008335268901889068
290,703.0926648399254,2.8509097049502326E-5,0.00836377799893857
291,701.9365322037107,2.8272227707281843E-5,0.008392050226645851
292,700.8056774618724,2.826776721338946E-5,0.008420317993859242
293,699.6815847499965,2.8658869040154155E-5,0.008448976862899396
294,698.5886767949224,2.8647229954579577E-5,0.008477624092853976
295,697.4388173273858,2.872055807070942E-5,0.008506344650924685
296,696.2841160112322,2.863221279847779E-5,0.008534976863723162
297,695.1158174380381,2.825181549931094E-5,0.008563228679222473
298,693.9469311685756,2.814545741807555E-5,0.008591374136640548
299,692.7753002676594,2.832448843788853E-5,0.008619698625078437
300,691.6220075895778,2.8105763344380896E-5,0.008647804388422818
301,690.4619895401345,2.821801072192753E-5,0.008676022399144745
302,689.2684814286555,2.8041116481098677E-5,0.008704063515625844
303,688.0770985870496,2.76362846037614E-5,0.008731699800229606
304,686.90811382667,2.771474652656047E-5,0.008759414546756166
305,685.7374543630136,2.7834338635227242E-5,0.008787248885391393
306,684.5945636940197,2.7996629847172696E-5,0.008815245515238566
307,683.4437480373018,2.8176324791968534E-5,0.008843421840030535
308,682.2924886931193,2.7972922141136002E-5,0.00887139476217167
309,681.1423887900346,2.809690504992111E-5,0.008899491667221591
310,679.96502564733,2.8101864300745646E-5,0.008927593531522338
