#t,ESS,tempDiff,temp
0,999.9999999999848,0.0,0.0
1,999.989999999992,1.0053033816122388E-4,1.0053033816122388E-4
2,999.9616456538179,9.916524543082881E-5,1.9969558359205267E-4
3,999.9162536791536,1.0228288694133481E-4,3.019784705333875E-4
4,999.8556918550426,1.0011256971535481E-4,4.020910402487423E-4
5,999.780733054621,1.008341112633077E-4,5.0292515151205E-4
6,999.693143538058,1.0364324908688405E-4,6.06568400598934E-4
7,999.5931553996331,1.0276181639708398E-4,7.09330216996018E-4
8,999.4809543698182,1.0192297048556113E-4,8.112531874815792E-4
9,999.35956224077,1.0215718666519168E-4,9.134103741467708E-4
10,999.2275298761078,1.0269624717033489E-4,0.0010161066213171057
11,999.088185914918,1.0228976257864095E-4,0.0011183963838957466
12,998.9381775632609,1.0102520479854828E-4,0.001219421588694295
13,998.7797306382051,9.927307269771971E-5,0.0013186946613920148
14,998.616214922467,9.789840062642483E-5,0.0014165930620184395
15,998.4423409079566,9.63121410810896E-5,0.001512905203099529
16,998.2571467460514,9.905825660689873E-5,0.0016119634597064278
17,998.0627312205012,1.0013697820971666E-4,0.0017121004379161444
18,997.8568714907033,9.732962526200617E-5,0.0018094300631781505
19,997.6475519954992,9.729696592251817E-5,0.0019067270291006687
20,997.4292030449886,9.887790638137391E-5,0.0020056049354820428
21,997.2162180369314,1.0049132277068934E-4,0.002106096258252732
22,996.9983536591457,1.0058847664290786E-4,0.00220668473489564
23,996.7739143796289,9.95393210443658E-5,0.0023062240559400056
24,996.542458083913,1.0013970462893658E-4,0.0024063637605689424
25,996.3037133447172,1.0149776157844519E-4,0.0025078615221473875
26,996.0579699971535,1.0178069722329397E-4,0.0026096422193706815
27,995.8019021343032,1.0081027198830465E-4,0.002710452491358986
28,995.5385040497106,1.0049008782889037E-4,0.0028109425791878763
29,995.2757522476877,9.98294257447649E-5,0.0029107720049326414
30,995.0061971496458,9.93984281431137E-5,0.003010170433075755
31,994.7332974657459,1.0030506659912806E-4,0.0031104754996748828
32,994.4578825680978,1.0249502553575732E-4,0.00321297052521064
33,994.1813469669962,1.0373397547816832E-4,0.0033167045006888083
34,993.8958278964401,1.0393719209815477E-4,0.003420641692786963
35,993.6103441739584,1.0003439674471785E-4,0.003520676089531681
36,993.3188785008489,1.009850864632093E-4,0.0036216611759948905
37,993.0171778846741,9.942169901270703E-5,0.0037210828750075978
38,992.7067615240893,1.0158959113220072E-4,0.0038226724661397987
39,992.3849985775012,1.0155461710231296E-4,0.003924227083242112
40,992.0630805856399,1.0086983226446065E-4,0.004025096915506572
41,991.7400034184866,1.0269638798683398E-4,0.004127793303493406
42,991.4208429326436,1.0093222490769441E-4,0.004228725528401101
43,991.0942619937414,1.0095025096210608E-4,0.004329675779363207
44,990.7568725950088,1.0048585882418085E-4,0.004430161638187388
45,990.4097854107337,9.915633695777468E-5,0.004529317975145162
46,990.062897240018,9.936161125679533E-5,0.0046286795864019575
47,989.7053766385187,9.756954954057625E-5,0.004726249135942533
48,989.3510207921705,9.820602336935308E-5,0.004824455159311887
49,989.0034992456272,9.785828931537089E-5,0.004922313448627258
50,988.6442539175652,9.982547541543747E-5,0.0050221389240426954
51,988.2873558099884,1.0036271836240633E-4,0.005122501642405102
52,987.9323863045213,9.871509263542287E-5,0.005221216735040525
53,987.5826202120869,1.0023621529939471E-4,0.0053214529503399196
54,987.2273553125049,1.0193523473392631E-4,0.0054233881850738455
55,986.8914990804656,1.0157468181127476E-4,0.0055249628668851206
56,986.5670042705991,1.0101610662460854E-4,0.005625978973509729
57,986.2380460447356,1.0128883006860998E-4,0.005727267803578339
58,985.9003560225473,1.036377640533048E-4,0.005830905567631644
59,985.5591358725062,1.0250191391391557E-4,0.005933407481545559
60,985.2141029185176,1.0090565759850019E-4,0.0060343131391440595
61,984.8811901134061,1.0118581803193326E-4,0.006135498957175993
62,984.5494876258692,1.0119997611818268E-4,0.006236698933294175
63,984.2132678531804,9.999364536811733E-5,0.006336692578662292
64,983.8799194415576,9.76303927540758E-5,0.006434322971416368
65,983.5297874025221,1.0045874992251484E-4,0.006534781721338883
66,983.1737191508165,9.987323612073712E-5,0.00663465495745962
67,982.8219649602346,9.880666894835084E-5,0.00673346162640797
68,982.4622982341101,9.829136179272921E-5,0.006831752988200699
69,982.092356180649,9.984754292569448E-5,0.006931600531126393
70,981.714780593893,9.902898325890706E-5,0.0070306295143853
71,981.32513928713,1.0004740317285065E-4,0.007130676917558151
72,980.9272496068971,1.008981799631783E-4,0.007231575097521329
73,980.532040387654,1.0019466422305118E-4,0.00733176976174438
74,980.133198823389,1.0056319563594908E-4,0.007432332957380329
75,979.7509171562097,1.0250724863194595E-4,0.007534840206012275
76,979.3697987888569,1.0373579797550799E-4,0.007638576003987783
77,979.0049760756352,1.028549928712052E-4,0.007741430996858988
78,978.64004582949,1.0531235393876755E-4,0.007846743350797755
79,978.2775602312106,1.0443402612129451E-4,0.00795117737691905
80,977.9233657149675,1.0240526797255032E-4,0.0080535826448916
81,977.5724875966362,1.0532238494101386E-4,0.008158905029832615
82,977.2092691553685,1.0576748713048179E-4,0.008264672516963096
83,976.8443429628693,1.0753337579024117E-4,0.008372205892753337
84,976.487089469043,1.0666828133246811E-4,0.008478874174085806
85,976.1140072672281,1.0621742127696739E-4,0.008585091595362773
86,975.7356582959164,1.0467515003712821E-4,0.008689766745399901
87,975.3705733256971,1.0451284170008145E-4,0.008794279587099984
88,975.0022302606634,1.063175424452378E-4,0.008900597129545221
89,974.6466141063086,1.0624071814464035E-4,0.009006837847689861
90,974.2901323557119,1.0756785718285114E-4,0.009114405704872713
91,973.9217153296063,1.0845691852993133E-4,0.009222862623402644
92,973.5550201451204,1.0562650387669591E-4,0.00932848912727934
93,973.1716693070556,1.0530210177378454E-4,0.009433791229053124
94,972.7961497362409,1.0860493714065164E-4,0.009542396166193776
95,972.4239530292031,1.106151189797687E-4,0.009653011285173544
96,972.083291036982,1.0823140942978025E-4,0.009761242694603324
97,971.7294408708617,1.0892930411863576E-4,0.00987017199872196
98,971.3684754219155,1.1036582138674088E-4,0.0099805378201087
99,971.0082209045194,1.0839300136349428E-4,0.010088930821472195
100,970.6484329099023,1.096716390172154E-4,0.01019860246048941
101,970.2987968162411,1.1126715550414022E-4,0.01030986961599355
102,969.9568529106357,1.1160912694866402E-4,0.010421478742942214
103,969.6051680635378,1.1084672183904033E-4,0.010532325464781256
104,969.24766662479,1.1087266833823636E-4,0.010643198133119492
105,968.8960179639366,1.1022252812884513E-4,0.010753420661248337
106,968.5407334086041,1.096628205639386E-4,0.010863083481812275
107,968.1994823247338,1.099805090409296E-4,0.010973063990853205
108,967.8707934129679,1.1165077273782263E-4,0.011084714763591028
109,967.5434973748364,1.1081363989478886E-4,0.011195528403485817
110,967.1996220876885,1.1210304496609735E-4,0.011307631448451915
111,966.8445549273963,1.1167737888318739E-4,0.011419308827335103
112,966.5108742653773,1.1167818716118486E-4,0.011530987014496287
113,966.1354991205119,1.0978570476541155E-4,0.0116407727192617
114,965.7542788876494,1.1112196803727863E-4,0.011751894687298979
115,965.3804647376805,1.0866416791785333E-4,0.011860558855216832
116,965.0156418968488,1.0981967654823653E-4,0.011970378531765068
117,964.6395673280362,1.1026092170056851E-4,0.012080639453465637
118,964.2665802367446,1.0932837651457431E-4,0.01218996782998021
119,963.8974280327806,1.083607323323791E-4,0.01229832856231259
120,963.5556380514788,1.075657736996019E-4,0.012405894336012191
121,963.2008352019913,1.0848260191724979E-4,0.012514376937929441
122,962.8622396251177,1.0917139899414583E-4,0.012623548336923588
123,962.5096087377366,1.0796332244066855E-4,0.012731511659364257
124,962.1806382750461,1.0985459629246999E-4,0.012841366255656727
125,961.8289371218116,1.0831252626503191E-4,0.01294967878192176
126,961.4694304669582,1.0805177323226825E-4,0.013057730555154027
127,961.0870095561709,1.0771464663545478E-4,0.013165445201789482
128,960.7052500395457,1.0819092873010432E-4,0.013273636130519587
129,960.3327185485781,1.0870481706474408E-4,0.01338234094758433
130,959.9811825754206,1.1248744573316085E-4,0.01349482839331749
131,959.6255950674711,1.1301760942834997E-4,0.01360784600274584
132,959.2554042917226,1.1427030226000201E-4,0.013722116305005841
133,958.8631787850729,1.1221564817003142E-4,0.013834331953175873
134,958.4628593324492,1.1423141574278698E-4,0.01394856336891866
135,958.0653345607332,1.1463796917912794E-4,0.014063201338097788
136,957.6720522004998,1.152417202153657E-4,0.014178443058313154
137,957.2461859500689,1.1334313885811342E-4,0.014291786197171266
138,956.8542497778066,1.1312681220721217E-4,0.014404913009378479
139,956.4776487848351,1.1330309856875794E-4,0.014518216107947237
140,956.1073243680092,1.1551266966043359E-4,0.01463372877760767
141,955.7296490271618,1.162070929013748E-4,0.014749935870509044
142,955.3254172685565,1.1449331809300825E-4,0.014864429188602053
143,954.918595866663,1.1438287574742114E-4,0.014978812064349473
144,954.5097472834386,1.1365101785779516E-4,0.015092463082207267
145,954.125508799253,1.1422833439036126E-4,0.01520669141659763
146,953.7068112514971,1.1313595377274177E-4,0.015319827370370371
147,953.3027694573404,1.1063866254630224E-4,0.015430466032916673
148,952.892706069121,1.109280381220901E-4,0.015541394071038763
149,952.4789718913881,1.126660479176169E-4,0.01565406011895638
150,952.0550064809584,1.1114852613781505E-4,0.015765208645094196
151,951.6270783376324,1.1349742005563237E-4,0.01587870606514983
152,951.2094808497351,1.1328970561369381E-4,0.015991995770763524
153,950.7916154394835,1.1333527939887183E-4,0.016105331050162396
154,950.3621563637165,1.117937387388559E-4,0.016217124788901253
155,949.9759664822103,1.09861605181621E-4,0.016326986394082872
156,949.6013633226145,1.1141770005524753E-4,0.01643840409413812
157,949.2049709593144,1.0949196499916735E-4,0.016547896059137288
158,948.7972696587257,1.1017784917684101E-4,0.016658073908314128
159,948.3927501261599,1.112700921461916E-4,0.016769344000460318
160,947.9874739999213,1.0847911313537851E-4,0.016877823113595695
161,947.5967763200922,1.0993813485017182E-4,0.01698776124844587
162,947.1777478983793,1.1037040947712903E-4,0.017098131657922996
163,946.7601738563734,1.1244152338566315E-4,0.01721057318130866
164,946.3324293372766,1.1138011169174003E-4,0.0173219532930004
165,945.8958717712827,1.1206895859701708E-4,0.017434022251597417
166,945.4624227991951,1.1238959117188424E-4,0.0175464118427693
167,945.0509786917982,1.1267969089021386E-4,0.017659091533659514
168,944.6439510723385,1.1341170614757743E-4,0.017772503239807093
169,944.2301999679764,1.1247681119035818E-4,0.01788498005099745
170,943.8008797739678,1.122202955705343E-4,0.017997200346567984
171,943.3694656096634,1.1294726715879024E-4,0.018110147613726774
172,942.9565375548926,1.1336874225307866E-4,0.018223516355979852
173,942.5222422788331,1.166482467559846E-4,0.018340164602735836
174,942.1039520904063,1.1568245671211296E-4,0.018455847059447947
175,941.6878651739925,1.1581045548788861E-4,0.018571657514935835
176,941.2724129165516,1.1509889150628716E-4,0.018686756406442122
177,940.8387063611227,1.1594051725651903E-4,0.018802696923698643
178,940.4176642550118,1.1346154209892333E-4,0.018916158465797566
179,939.9816226659116,1.1610521985085746E-4,0.019032263685648424
180,939.5749080505874,1.1737800101195698E-4,0.01914964168666038
181,939.1701696566663,1.1824747794219704E-4,0.019267889164602578
182,938.7955168047728,1.1934342534483167E-4,0.01938723258994741
183,938.4298938070419,1.210709279679231E-4,0.019508303517915333
184,938.0405376246811,1.2039008890897596E-4,0.01962869360682431
185,937.652715391728,1.20245114614318E-4,0.019748938721438628
186,937.2728287755018,1.1970810404348588E-4,0.019868646825482113
187,936.8702852136723,1.1926212826695576E-4,0.019987908953749068
188,936.4702224806135,1.2029999106125836E-4,0.020108208944810326
189,936.0515375278848,1.2190095462667982E-4,0.020230109899437007
190,935.6287770141628,1.221464470971204E-4,0.020352256346534127
191,935.208982312063,1.231116514088654E-4,0.020475367997942993
192,934.799544414058,1.2072198454326705E-4,0.02059608998248626
193,934.3861369559564,1.1947105292659653E-4,0.020715561035412857
194,934.0233126847194,1.1887005773870973E-4,0.020834431093151567
195,933.669392951641,1.1929410201368229E-4,0.020953725195165248
196,933.3195949789064,1.186994403230766E-4,0.021072424635488324
197,932.9844614566828,1.1952095685904792E-4,0.021191945592347373
198,932.6369750619622,1.1791959585440064E-4,0.021309865188201774
199,932.2623834516162,1.1894614532937288E-4,0.021428811333531146
200,931.8889914472608,1.1818958219301891E-4,0.021547000915724163
201,931.50600902182,1.2116359542958199E-4,0.021668164511153745
202,931.1621718235064,1.2163054856735765E-4,0.021789795059721104
203,930.7752813394583,1.19891487164843E-4,0.021909686546885947
204,930.3764494419252,1.2045328618095146E-4,0.022030139833066897
205,929.9732737518597,1.1784953337067249E-4,0.02214798936643757
206,929.5876773282436,1.1677369348553132E-4,0.0222647630599231
207,929.2212515056177,1.1763105099628063E-4,0.02238239411091938
208,928.8720508497215,1.1727229939940067E-4,0.02249966641031878
209,928.5382156762372,1.1871697613968077E-4,0.02261838338645846
210,928.1873718663677,1.1982200414488053E-4,0.022738205390603342
211,927.8177214621836,1.196117474000585E-4,0.0228578171380034
212,927.4561938487358,1.1988872271371109E-4,0.02297770586071711
213,927.0783575394998,1.2050601434830381E-4,0.023098211875065413
214,926.6789399216136,1.1989431307470557E-4,0.023218106188140117
215,926.3087156648296,1.220967332300255E-4,0.02334020292137014
216,925.9630221493672,1.2068184835147026E-4,0.02346088476972161
217,925.6284126411911,1.2072124652095991E-4,0.02358160601624257
218,925.3168052652078,1.1942689618651446E-4,0.023701032912429084
219,924.9941685498583,1.1927927455953446E-4,0.02382031218698862
220,924.694676628461,1.172054801118868E-4,0.023937517667100505
221,924.3691849439267,1.1561450772412686E-4,0.024053132174824632
222,924.0475580449128,1.1508090695330178E-4,0.024168213081777933
223,923.6941713405585,1.1512074406510019E-4,0.024283333825843034
224,923.3174939760307,1.1414743929758327E-4,0.024397481265140616
225,922.9521901934195,1.1752764118422388E-4,0.02451500890632484
226,922.6314103543726,1.1785090075085965E-4,0.024632859807075698
227,922.2570757093032,1.1808929851778025E-4,0.02475094910559348
228,921.9304192933882,1.182801009056273E-4,0.024869229206499106
229,921.6310816132076,1.18969814001632E-4,0.02498819902050074
230,921.3293128107061,1.1725109789542979E-4,0.02510545011839617
231,921.0260429738879,1.1862194811986619E-4,0.025224072066516036
232,920.7044996753666,1.2075702634304937E-4,0.025344829092859084
233,920.3783100695896,1.2104078375618065E-4,0.025465869876615265
234,920.0556525807302,1.2144538761152369E-4,0.02558731526422679
235,919.7022699956443,1.2067537507669601E-4,0.025707990639303485
236,919.3735833090585,1.2075938456745598E-4,0.02582875002387094
237,919.0420524310716,1.2067860465834161E-4,0.025949428628529284
238,918.7126113141567,1.2191400942505554E-4,0.02607134263795434
239,918.3830375788024,1.2503689943216517E-4,0.026196379537386506
240,918.0757927330569,1.2475861221200723E-4,0.02632113814959851
241,917.752210396976,1.2439074248733176E-4,0.026445528892085842
242,917.4384680759231,1.229209303293335E-4,0.026568449822415175
243,917.0890498577437,1.2143850229295565E-4,0.02668988832470813
244,916.7709812148488,1.2133625519603106E-4,0.02681122457990416
245,916.430450030541,1.2323134266394457E-4,0.026934455922568105
246,916.058407570327,1.2213637352805545E-4,0.02705659229609616
247,915.6744990096322,1.2270756386958823E-4,0.02717929985996575
248,915.3109621533772,1.2313532849231846E-4,0.02730243518845807
249,914.9341354701096,1.2509972484621887E-4,0.027427534913304286
250,914.542243230619,1.230042297418471E-4,0.027550539143046133
251,914.1511951868222,1.2180483826574915E-4,0.02767234398131188
252,913.750829080499,1.2309621580253128E-4,0.027795440197114413
253,913.3293936579146,1.226982683039845E-4,0.027918138465418397
254,912.9096641973263,1.2171877710913333E-4,0.02803985724252753
255,912.5103465866314,1.2501131057536286E-4,0.028164868553102893
256,912.104640878076,1.272413103946264E-4,0.02829210986349752
257,911.6905997043975,1.2409499993703196E-4,0.02841620486343455
258,911.247159252561,1.260694356408845E-4,0.028542274299075434
259,910.8177038048987,1.2691194082531442E-4,0.028669186239900748
260,910.3999680572853,1.2376265810764292E-4,0.028792948898008392
261,909.9844749810477,1.2323189261522418E-4,0.028916180790623615
262,909.5857264480298,1.2427264978005683E-4,0.029040453440403673
263,909.1894213640182,1.2444829385286192E-4,0.029164901734256534
264,908.8096707642082,1.245370904334428E-4,0.029289438824689977
265,908.4662153767011,1.251779199276717E-4,0.02941461674461765
266,908.1031979195158,1.2589233681772717E-4,0.029540509081435375
267,907.775858674154,1.2285545568136583E-4,0.02966336453711674
268,907.442336468963,1.2478144251746708E-4,0.02978814597963421
269,907.1165121159073,1.255472316337347E-4,0.029913693211267942
270,906.7927296554005,1.2433244020266927E-4,0.030038025651470613
271,906.4717103177717,1.2575929888208455E-4,0.0301637849503527
272,906.2054097539839,1.2372962768362024E-4,0.030287514578036318
273,905.9405929381007,1.2327939101132698E-4,0.030410793969047646
274,905.6917196129281,1.2200994897776828E-4,0.030532803918025413
275,905.4471653712523,1.2100993986567306E-4,0.030653813857891087
276,905.1838758437495,1.2225861546165355E-4,0.03077607247335274
277,904.8993648065587,1.2146086275526192E-4,0.030897533336108004
278,904.6509944585052,1.2376238564877677E-4,0.03102129572175678
279,904.4105568075173,1.2381306951996678E-4,0.031145108791276747
280,904.1531174224505,1.231025734130518E-4,0.031268211364689796
281,903.8899348474425,1.2385078849694078E-4,0.03139206215318674
282,903.6216479094975,1.2347865612511775E-4,0.031515540809311855
283,903.3253765741921,1.2259939140213744E-4,0.031638140200713996
284,903.0233891244001,1.2244159153674351E-4,0.03176058179225074
285,902.7454981717287,1.2556291238215918E-4,0.0318861447046329
286,902.4688774417215,1.2370794878230045E-4,0.0320098526534152
287,902.2080439810948,1.266647846551264E-4,0.032136517438070326
288,901.9649452412984,1.277294677928661E-4,0.03226424690586319
289,901.7127720341675,1.26447654456057E-4,0.03239069456031925
290,901.4951774058474,1.290164641331621E-4,0.03251971102445241
291,901.244649215718,1.307884500521897E-4,0.0326504994745046
292,900.9477136721326,1.3014139901365866E-4,0.03278064087351826
293,900.6561338561888,1.3182155465866552E-4,0.03291246242817692
294,900.3582040354838,1.343322436777834E-4,0.0330467946718547
295,900.0792578582968,1.3393791870798712E-4,0.03318073259056269
296,899.8393259320028,1.3382588742946201E-4,0.03331455847799215
297,899.5526727828192,1.3742609544157392E-4,0.03345198457343372
298,899.2724419884958,1.3449034796674368E-4,0.03358647492140047
299,898.9714900183485,1.338446073903903E-4,0.03372031952879086
300,898.6942080384772,1.32165447041833E-4,0.03385248497583269
301,898.4445342453342,1.345318681328512E-4,0.03398701684396554
302,898.1531583922771,1.3452033496173316E-4,0.03412153717892727
303,897.8505639566185,1.3110886530185852E-4,0.034252646044229125
304,897.59221605672,1.2950425160772626E-4,0.03438215029583685
305,897.3574200893228,1.3169167918632792E-4,0.03451384197502318
306,897.141348062996,1.2945529302909884E-4,0.03464329726805228
307,896.937167636784,1.3094879011961734E-4,0.03477424605817189
308,896.7145579871623,1.307499844246527E-4,0.034904996042596545
309,896.4824821257947,1.2996121783275734E-4,0.0350349572604293
310,896.2567189659032,1.2981726891969067E-4,0.03516477452934899
311,896.039114241448,1.2838854508367517E-4,0.035293163074432664
