#t,ESS,tempDiff,temp
0,999.9999999999848,0.0,0.0
1,999.989923561061,1.0046974485551902E-4,1.0046974485551902E-4
2,999.9616557167093,1.001502075329204E-4,2.006199523884394E-4
3,999.9184950759512,9.802600348130167E-5,2.9864595586974105E-4
4,999.8623185559962,9.717530505323424E-5,3.9582126092297526E-4
5,999.7900667449704,9.94064848017254E-5,4.952277457247006E-4
6,999.7053264355716,1.007422137222641E-4,5.959699594469647E-4
7,999.6098461386806,9.845005048835274E-5,6.944200099353174E-4
8,999.5105138667986,9.495949106140224E-5,7.893795009967196E-4
9,999.3990638051404,9.797244071064066E-5,8.873519417073603E-4
10,999.2727053082878,9.89662414950161E-5,9.863181832023764E-4
11,999.1358013999427,9.90816468080622E-5,0.0010853998300104385
12,998.9925603051968,9.888155567033089E-5,0.0011842813856807694
13,998.8340597393166,9.811418827488833E-5,0.0012823955739556577
14,998.6702738619397,9.83953855813816E-5,0.0013807909595370392
15,998.4984842304063,9.871653623395461E-5,0.0014795074957709938
16,998.3199276427849,9.886216244970732E-5,0.001578369658220701
17,998.1324538382291,9.807281306835457E-5,0.0016764424712890557
18,997.9432514491888,9.802113280153472E-5,0.0017744636040905905
19,997.7430936903369,9.78586570170308E-5,0.0018723222611076213
20,997.5357350927404,9.612097676561364E-5,0.001968443237873235
21,997.3223299018766,9.485199077589242E-5,0.002063295228649127
22,997.1005607272818,9.7837764205891E-5,0.0021611329928550183
23,996.865394300941,9.938349657240235E-5,0.0022605164894274206
24,996.6227791455223,9.845903797352369E-5,0.0023589755274009442
25,996.3769401373786,9.791708469312148E-5,0.0024568926120940656
26,996.1143422901293,1.006394204351563E-4,0.002557532032529222
27,995.8459471547768,1.0092179754397359E-4,0.0026584538300731954
28,995.5865109673879,1.0100687743769404E-4,0.0027594607075108893
29,995.3308316810726,9.74401796860158E-5,0.0028569008871969052
30,995.0689345442478,9.955585382590552E-5,0.002956456741022811
31,994.7998216644821,1.0047245332568547E-4,0.0030569291943484964
32,994.5225011224027,1.0148292738917452E-4,0.003158412121737671
33,994.2458459871668,1.0169142045356687E-4,0.003260103542191238
34,993.9626662743627,1.0265458932629815E-4,0.003362758131517536
35,993.6822781363779,1.0255350370312159E-4,0.0034653116352206578
36,993.390427193151,1.035872242935277E-4,0.0035688988595141856
37,993.0811052366913,1.0503257944141441E-4,0.0036739314389556
38,992.7669939596088,1.0450611244068117E-4,0.003778437551396281
39,992.4702624108392,9.956535798260887E-5,0.00387800290937889
40,992.1621211562071,1.015851527773869E-4,0.003979588062156277
41,991.8635365630672,1.005720715535621E-4,0.0040801601337098386
42,991.5628598521363,1.0174450490699259E-4,0.0041819046386168315
43,991.2612487521828,1.0072137489225088E-4,0.004282626013509082
44,990.9716590678364,9.989848175072292E-5,0.004382524495259805
45,990.6870881797366,9.653230952761537E-5,0.00447905680478742
46,990.4011322542583,9.595276689017824E-5,0.004575009571677598
47,990.1237871926385,9.691294793013399E-5,0.004671922519607732
48,989.8366985603963,9.794319790937448E-5,0.004769865717517106
49,989.5487695648378,1.0006415615503694E-4,0.004869929873672144
50,989.2358971387786,1.004747663942225E-4,0.004970404640066366
51,988.9235763771545,1.0138888621036246E-4,0.005071793526276728
52,988.6098557035315,1.0156706730708152E-4,0.005173360593583809
53,988.287068478283,1.032391714530869E-4,0.005276599765036896
54,987.960136735434,1.0335123209906178E-4,0.005379950997135958
55,987.6401267987437,1.0392333943616043E-4,0.005483874336572118
56,987.3164750055968,1.0316210459518723E-4,0.005587036441167305
57,987.0040115720363,1.0339325774526758E-4,0.005690429698912572
58,986.6828583844217,1.0274715200023915E-4,0.005793176850912811
59,986.3577766936004,1.026114822193511E-4,0.005895788333132162
60,986.0140730237006,1.037821325029733E-4,0.0059995704656351356
61,985.6782264158493,1.0135806473176318E-4,0.006100928530366899
62,985.3339922757355,1.0110800822512639E-4,0.006202036538592025
63,984.9881494560906,1.0326860341341924E-4,0.0063053051420054445
64,984.6548574596799,9.862525826577947E-5,0.006403930400271224
65,984.2988675171305,1.0025678128077361E-4,0.006504187181551997
66,983.9338673637375,1.0064511587844053E-4,0.006604832297430438
67,983.5720785239075,1.0043291658462956E-4,0.006705265214015067
68,983.2205345964853,1.0073040434477283E-4,0.00680599561835984
69,982.8752137910787,1.005035181925463E-4,0.0069064991365523866
70,982.5276849403281,1.0005628143551932E-4,0.007006555417987906
71,982.1552026314699,9.943192899122653E-5,0.007105987346979132
72,981.7900846589798,1.0001149905375478E-4,0.007205998846032887
73,981.4490339982077,1.0093407481266192E-4,0.007306932920845549
74,981.0938465082156,1.0223663588012854E-4,0.007409169556725677
75,980.7419586065465,1.004830176482945E-4,0.0075096525743739715
76,980.3746379049929,1.014776323546594E-4,0.0076111302067286305
77,980.0118569026343,1.0202474705746106E-4,0.007713154953786092
78,979.6445157197409,1.0467485423977354E-4,0.007817829808025865
79,979.266178451329,1.0459582163981154E-4,0.007922425629665676
80,978.8798632430214,1.0470782029944878E-4,0.008027133449965125
81,978.5097800151502,1.0273270929445782E-4,0.008129866159259582
82,978.1345497173435,1.0173525904711694E-4,0.0082316014183067
83,977.7588795751763,1.0203966685938128E-4,0.008333641085166082
84,977.3739620412224,1.026107494704541E-4,0.008436251834636536
85,976.9958853409272,1.0282973864903076E-4,0.008539081573285567
86,976.6213316046543,1.0303913374315694E-4,0.008642120707028723
87,976.2583461068671,1.0417206738774928E-4,0.008746292774416473
88,975.9107150204417,1.0494735054432024E-4,0.008851240124960793
89,975.5489669557109,1.0633168910344498E-4,0.008957571814064239
90,975.1892187010542,1.0423589808181693E-4,0.009061807712146056
91,974.8211187973681,1.0602451681600098E-4,0.009167832228962057
92,974.4472422123599,1.087774841185533E-4,0.00927660971308061
93,974.0800953179569,1.0753684873238884E-4,0.009384146561812998
94,973.7434323515579,1.0700642460052999E-4,0.009491152986413528
95,973.3895119138299,1.0871708768717836E-4,0.009599870074100706
96,973.047259990817,1.0604473864508462E-4,0.00970591481274579
97,972.7101175709495,1.0621136494735999E-4,0.009812126177693151
98,972.3446937484325,1.0504635192812413E-4,0.009917172529621276
99,971.9839025385224,1.071711555954282E-4,0.010024343685216704
100,971.6265221065772,1.0723169715692002E-4,0.010131575382373624
101,971.2559248903734,1.0892507636091303E-4,0.010240500458734538
102,970.8821358103813,1.0921164649726705E-4,0.010349712105231805
103,970.5211393305659,1.0802022478679337E-4,0.010457732330018598
104,970.1783483442267,1.0985453914308538E-4,0.010567586869161684
105,969.8328431156061,1.1051220860978467E-4,0.010678099077771468
106,969.4997340716243,1.1097728582659094E-4,0.01078907636359806
107,969.1902885756215,1.1223972477436605E-4,0.010901316088372425
108,968.8604082369515,1.1304884211391802E-4,0.011014364930486343
109,968.5430704211423,1.1221185991663352E-4,0.011126576790402977
110,968.196379550279,1.1246359120693329E-4,0.011239040381609909
111,967.8677849988527,1.114167734361665E-4,0.011350457155046076
112,967.5391429949527,1.1175504561456564E-4,0.011462212200660642
113,967.2049265928083,1.1138673969457682E-4,0.011573598940355218
114,966.8687637084332,1.088819683169283E-4,0.011682480908672147
115,966.5459867837068,1.0944218256120738E-4,0.011791923091233353
116,966.2277027453658,1.0782273348023808E-4,0.011899745824713592
117,965.8943928789472,1.1025460153268542E-4,0.012010000426246278
118,965.5466246735589,1.1277261253543729E-4,0.012122773038781716
119,965.2011819022048,1.1221695326132485E-4,0.01223498999204304
120,964.8448280252283,1.1222099737214483E-4,0.012347210989415184
121,964.5009036163682,1.1018429425852435E-4,0.012457395283673709
122,964.1672494613447,1.1025180016068098E-4,0.01256764708383439
123,963.8152739464169,1.1089663301266254E-4,0.012678543716847053
124,963.4651278307306,1.0942840816735833E-4,0.01278797212501441
125,963.1138922453114,1.0943169111340762E-4,0.012897403816127818
126,962.732396696041,1.096558675045093E-4,0.013007059683632327
127,962.3381454713514,1.1162131924721641E-4,0.013118681002879544
128,961.9308887652011,1.1153171321389516E-4,0.01323021271609344
129,961.4951042006687,1.1349426765648582E-4,0.013343706983749926
130,961.0310554508134,1.1098728023691223E-4,0.013454694263986837
131,960.5598560799795,1.1104869750969918E-4,0.013565742961496537
132,960.1263755540973,1.0988494398614906E-4,0.013675627905482686
133,959.7078796358277,1.0884721471222487E-4,0.01378447512019491
134,959.3079892155502,1.091912719171188E-4,0.01389366639211203
135,958.9192157112885,1.0991273312862198E-4,0.014003579125240652
136,958.523947354139,1.0922992213995066E-4,0.014112809047380602
137,958.1448075950992,1.1089208261117331E-4,0.014223701129991774
138,957.7565064849,1.1057111763185365E-4,0.014334272247623629
139,957.3744278030591,1.0943765469106475E-4,0.014443709902314692
140,956.9846822114928,1.0847042817574061E-4,0.014552180330490433
141,956.6009073217284,1.0775969959670715E-4,0.014659940030087141
142,956.2135617807771,1.0751519478388145E-4,0.014767455224871022
143,955.8045077162958,1.1226847678041246E-4,0.014879723701651434
144,955.3924560532604,1.1128013749999135E-4,0.014991003839151425
145,954.9454843602877,1.1288725061433373E-4,0.015103891089765759
146,954.5163784744624,1.1215580727159972E-4,0.015216046897037358
147,954.0988873717564,1.1139485901640694E-4,0.015327441756053765
148,953.6797359808503,1.1152030342050803E-4,0.015438962059474273
149,953.2653516337386,1.1297238599905608E-4,0.01555193444547333
150,952.8579158485936,1.1147836028287202E-4,0.015663412805756203
151,952.4729182284789,1.1002089948671097E-4,0.015773433705242913
152,952.0763589424165,1.1321604303360681E-4,0.01588664974827652
153,951.6898288783656,1.120082515979878E-4,0.01599865799987451
154,951.3192690911703,1.111219861761658E-4,0.016109779986050676
155,950.9624511505034,1.0993429747113902E-4,0.016219714283521817
156,950.6155043706691,1.0840518602763183E-4,0.01632811946954945
157,950.253183875964,1.074255436946887E-4,0.016435545013244138
158,949.8771131801998,1.0818889650194393E-4,0.016543733909746082
159,949.5167576936233,1.0816815248144145E-4,0.016651902062227525
160,949.128257407021,1.1106747930403545E-4,0.016762969541531562
161,948.7286871864475,1.0964013825437025E-4,0.016872609679785933
162,948.336156034012,1.103387658741264E-4,0.01698294844566006
163,947.9526047157124,1.0958266113297487E-4,0.017092531106793034
164,947.5307037849575,1.1148487939057373E-4,0.017204015986183607
165,947.108754489611,1.0943311644266066E-4,0.017313449102626267
166,946.6930449239143,1.1054494012216881E-4,0.017423994042748435
167,946.3133771145004,1.1067973540449117E-4,0.017534673778152925
168,945.9361302422549,1.1026975186123164E-4,0.017644943530014157
169,945.5737087904109,1.1234691027945068E-4,0.01775729044029361
170,945.2183600136055,1.1328453057108512E-4,0.017870574970864694
171,944.8474635633573,1.1409694232154598E-4,0.01798467191318624
172,944.4813177583432,1.1471709576443885E-4,0.018099389008950677
173,944.1135506024724,1.1611813021288072E-4,0.018215507139163558
174,943.7623007265013,1.164202563478651E-4,0.018331927395511424
175,943.4376200487244,1.1504127179782039E-4,0.018446968667309244
176,943.1105726782846,1.1491958394850284E-4,0.018561888251257746
177,942.782807987485,1.1456532136617058E-4,0.018676453572623916
178,942.4721898700359,1.154319199426162E-4,0.018791885492566534
179,942.1433391024957,1.1645624159263371E-4,0.018908341734159166
180,941.8239430273168,1.1863169842796921E-4,0.019026973432587135
181,941.5199357967116,1.189943309590024E-4,0.01914596776354614
182,941.177111272217,1.1924365412753207E-4,0.01926521141767367
183,940.8130910300358,1.2127696225760458E-4,0.019386488379931274
184,940.438414870359,1.18717199403378E-4,0.01950520557933465
185,940.0819924362154,1.2062245499027188E-4,0.019625828034324923
186,939.7217752851751,1.2199997423067409E-4,0.019747828008555596
187,939.3679375287999,1.2294910148920313E-4,0.0198707771100448
188,939.0173625314033,1.2164485392407685E-4,0.019992421963968877
189,938.6524578380614,1.2482978831285314E-4,0.02011725175228173
190,938.3227890344917,1.2263935804344183E-4,0.020239891110325172
191,938.0096037361888,1.221142228159818E-4,0.020362005333141153
192,937.6788905946771,1.2029804729667601E-4,0.020482303380437827
193,937.3326318562737,1.1958572044466446E-4,0.02060188910088249
194,936.9617966154261,1.1718060978254503E-4,0.020719069710665037
195,936.6082178105063,1.1784058543842626E-4,0.020836910296103465
196,936.2573522786801,1.1688368281261163E-4,0.020953793978916075
197,935.921426286002,1.161029511853818E-4,0.021069896930101455
198,935.5728453038844,1.171852802245995E-4,0.021187082210326055
199,935.2492870559787,1.1724694748882455E-4,0.02130432915781488
200,934.9346452369766,1.1790501311322519E-4,0.021422234170928103
201,934.6137767380865,1.2129427336426275E-4,0.021543528444292366
202,934.3160837799504,1.2074273203258021E-4,0.021664271176324947
203,934.0033282418608,1.193467746597521E-4,0.0217836179509847
204,933.6703966334928,1.221820151839696E-4,0.02190579996616867
205,933.347794887075,1.231920764237737E-4,0.022028992042592444
206,933.0189891833447,1.2025243154625575E-4,0.0221492444741387
207,932.6612011587077,1.2002149595683012E-4,0.022269265970095528
208,932.2863077862979,1.2097177546251391E-4,0.022390237745558043
209,931.9098448559974,1.2071384320626571E-4,0.02251095158876431
210,931.5400210649015,1.2046557525510681E-4,0.022631417164019417
211,931.173945822667,1.2259291642658765E-4,0.022754010080446006
212,930.8398567760315,1.2143395339826789E-4,0.022875444033844273
213,930.520726188009,1.2314169378092898E-4,0.0229985857276252
214,930.1674207844826,1.220748699335145E-4,0.023120660597558716
215,929.8189628119812,1.2399761774515837E-4,0.023244658215303873
216,929.4673397699635,1.231091387273776E-4,0.02336776735403125
217,929.1380370462001,1.221244067533563E-4,0.023489891760784608
218,928.8120516188343,1.200897773708392E-4,0.023609981538155446
219,928.4751292355612,1.2154599023801046E-4,0.023731527528393456
220,928.1736391617732,1.2142053339933586E-4,0.023852948061792792
221,927.8837281381384,1.1935746676905746E-4,0.02397230552856185
222,927.6186439324149,1.1761833051944138E-4,0.02408992385908129
223,927.3441429092424,1.2147324973113141E-4,0.024211397108812423
224,927.050678988052,1.2354803324358696E-4,0.02433494514205601
225,926.7471575120255,1.2210744841482064E-4,0.02445705259047083
226,926.4120702149395,1.1964575344568804E-4,0.024576698343916518
227,926.0675294408397,1.2372198521561995E-4,0.02470042032913214
228,925.7191876339691,1.244969336548264E-4,0.024824917262786964
229,925.3847761525464,1.2122255743647388E-4,0.024946139820223437
230,925.0646186429725,1.2191558184438513E-4,0.025068055402067822
231,924.7578260866704,1.2375019034370082E-4,0.025191805592411524
232,924.4340211196046,1.2217883967855476E-4,0.02531398443209008
233,924.086736963015,1.233476755057823E-4,0.025437332107595863
234,923.7440821622442,1.2367987639179162E-4,0.025561011983987653
235,923.3917060666209,1.2177583566975175E-4,0.025682787819657407
236,923.0349484276867,1.2132215770041389E-4,0.025804109977357822
237,922.6735365340686,1.2395747594039507E-4,0.025928067453298217
238,922.3394351595498,1.2367470915182602E-4,0.026051742162450042
239,922.0334733411263,1.193858293238491E-4,0.02617112799177389
240,921.7223634979894,1.2035359917178953E-4,0.02629148159094568
241,921.424773262155,1.210302709475514E-4,0.02641251186189323
242,921.163716781462,1.236629729526817E-4,0.02653617483484591
243,920.8817309927219,1.2430299008963717E-4,0.02666047782493555
244,920.5873803260462,1.2521989754679823E-4,0.026785697722482345
245,920.2488509050584,1.2396928451314474E-4,0.02690966700699549
246,919.9012437160144,1.2417620490676586E-4,0.027033843211902255
247,919.5836770976525,1.244751571316729E-4,0.02715831836903393
248,919.2355187087635,1.242904388696733E-4,0.0272826088079036
249,918.9403581501941,1.2459370380535193E-4,0.027407202511708955
250,918.6238438304935,1.2556254571837228E-4,0.027532765057427327
251,918.3127325007667,1.2740334341702553E-4,0.027660168400844353
252,918.0301608880636,1.2584995136919385E-4,0.027786018352213546
253,917.7592295163095,1.256210418412501E-4,0.027911639394054794
254,917.4983308809843,1.2562967517622974E-4,0.028037269069231024
255,917.2420691110111,1.2716060215445314E-4,0.028164429671385476
256,916.9626623097871,1.246705310079915E-4,0.028289100202393468
257,916.6855821892684,1.2300241954842593E-4,0.028412102621941892
258,916.4485733827441,1.2217223140161058E-4,0.028534274853343502
259,916.1940073954165,1.2206969058685204E-4,0.028656344543930352
260,915.9363711113738,1.1861988253280096E-4,0.028774964426463153
261,915.6625367881772,1.2010228815909685E-4,0.02889506671462225
262,915.3949043934857,1.2359019623028216E-4,0.029018656910852533
263,915.1318666066319,1.261003394575395E-4,0.02914475725031007
264,914.8626225112647,1.2606424858037257E-4,0.029270821498890445
265,914.5915429819255,1.2480689362395889E-4,0.029395628392514403
266,914.3000733602177,1.2467903728059462E-4,0.029520307429794997
267,914.0101222165505,1.2338752085500727E-4,0.029643694950650005
268,913.7347800653924,1.2197884527064852E-4,0.029765673795920652
269,913.4585061124933,1.226584190156686E-4,0.02988833221493632
270,913.176167907588,1.237907193181085E-4,0.030012122934254426
271,912.8634266791496,1.2423606477178988E-4,0.030136358999026214
272,912.5477405080608,1.2848713735838562E-4,0.0302648461363846
273,912.254107507211,1.3030663750559325E-4,0.030395152773890193
274,911.9482805267644,1.2969263751251185E-4,0.030524845411402705
275,911.6194743117552,1.2899063000693358E-4,0.03065383604140964
276,911.3018790963189,1.3030493044685788E-4,0.030784140971856496
277,910.983032374322,1.298049300146681E-4,0.030913945901871163
278,910.6926774499244,1.286622519455092E-4,0.03104260815381667
279,910.3904731241092,1.296859441499855E-4,0.031172294097966655
280,910.0581946743063,1.2733448572720292E-4,0.03129962858369386
281,909.7235596070993,1.2624818079100963E-4,0.03142587676448487
282,909.3873516321672,1.2870543884361394E-4,0.031554582203328484
283,909.0553635535701,1.2917927180436265E-4,0.03168376147513285
284,908.7321935393146,1.2783624551980375E-4,0.03181159772065265
285,908.4218974570464,1.2890730121634662E-4,0.031940505021869
286,908.1170388290376,1.2968308813827544E-4,0.032070188110007274
287,907.8103206337722,1.2985338204989845E-4,0.03220004149205717
288,907.5050013517623,1.3061701263927933E-4,0.03233065850469645
289,907.1992590013149,1.3319169045211592E-4,0.032463850195148566
290,906.9148757617411,1.3463812615452053E-4,0.03259848832130309
291,906.6380900120648,1.3382422566695742E-4,0.032732312546970045
292,906.3552677088632,1.3731319446408884E-4,0.032869625741434136
293,906.0811693316961,1.3704691923739103E-4,0.033006672660671525
294,905.7718390535084,1.3650439252989847E-4,0.033143177053201425
295,905.4660954350675,1.3635025140260135E-4,0.033279527304604026
296,905.1657925510535,1.3449650911186148E-4,0.03341402381371589
297,904.8471962412467,1.3593598354800495E-4,0.03354995979726389
298,904.5516056413786,1.3216588862070808E-4,0.0336821256858846
299,904.265343066901,1.3296246349280886E-4,0.033815088149377406
300,903.9800990211246,1.3494582112712675E-4,0.033950033970504535
301,903.7092184213585,1.3388852817786026E-4,0.0340839224986824
302,903.4126463663571,1.3157872131020157E-4,0.034215501219992596
303,903.0739629594838,1.3449444205465065E-4,0.034349995662047245
304,902.7505286365301,1.3027634444915125E-4,0.03448027200649639
305,902.4287153567202,1.3412221146181448E-4,0.03461439421795821
306,902.0995787244782,1.3358802011807127E-4,0.03474798223807628
307,901.7453042711472,1.3285408402487884E-4,0.03488083632210116
308,901.373152686318,1.310996331909707E-4,0.035011935955292124
309,901.0378637109413,1.309622881295319E-4,0.03514289824342166
310,900.701689398013,1.3133434678797213E-4,0.03527423259020963
311,900.3607756488246,1.3087895837723325E-4,0.03540511154858686
