#t,ESS,tempDiff,temp
0,200.00000000000065,0.0,0.0
1,199.99978494032283,4.548684602700923E-6,4.548684602700923E-6
2,199.99914308330324,4.575654719387684E-6,9.124339322088608E-6
3,199.9980863041359,4.5664178949563315E-6,1.3690757217044939E-5
4,199.996591155177,4.5921354376969185E-6,1.8282892654741857E-5
5,199.99469974145248,4.591345008726758E-6,2.2874237663468615E-5
6,199.99238655744483,4.580106832014899E-6,2.7454344495483516E-5
7,199.98964934265854,4.554583747839428E-6,3.200892824332294E-5
8,199.98651337746284,4.5417610487083385E-6,3.655068929203128E-5
9,199.98297891137418,4.514794163946874E-6,4.106548345597815E-5
10,199.97901950995853,4.5013145670044465E-6,4.55667980229826E-5
11,199.97462454235435,4.5167684842721256E-6,5.008356650725472E-5
12,199.96983421599836,4.569788208153412E-6,5.4653354715408135E-5
13,199.9645486147851,4.61089633746838E-6,5.926425105287651E-5
14,199.95888484451075,4.593658675639881E-6,6.385790972851639E-5
15,199.9528739154142,4.568558847556814E-6,6.84264685760732E-5
16,199.94642522676662,4.616696401706925E-6,7.304316497778013E-5
17,199.93960189359817,4.577162799705612E-6,7.762032777748574E-5
18,199.9323850544768,4.5939034162274045E-6,8.221423119371315E-5
19,199.92477227022707,4.58182295064315E-6,8.67960541443563E-5
20,199.91672337353745,4.5866044559084784E-6,9.138265860026478E-5
21,199.90811447771387,4.644335508816739E-6,9.602699410908152E-5
22,199.89916802957987,4.651458054156335E-6,1.0067845216323786E-4
23,199.88989800568118,4.598015228756858E-6,1.0527646739199471E-4
24,199.88025158058102,4.627486889804239E-6,1.0990395428179895E-4
25,199.87032286990822,4.6450220450668765E-6,1.1454897632686583E-4
26,199.8599683698576,4.6318316310787736E-6,1.191808079579446E-4
27,199.8493523840678,4.595474686694471E-6,1.2377628264463906E-4
28,199.8383771721634,4.5672669177462306E-6,1.283435495623853E-4
29,199.8271926644252,4.515580657780822E-6,1.3285913022016612E-4
30,199.8155943524818,4.5220138827840995E-6,1.3738114410295023E-4
31,199.80365396904475,4.4914522445894164E-6,1.4187259634753965E-4
32,199.79118441561818,4.510267362869017E-6,1.4638286371040866E-4
33,199.77849131166167,4.498861951984858E-6,1.5088172566239352E-4
34,199.76530775071808,4.506618318292916E-6,1.5538834398068645E-4
35,199.75167548720233,4.478018719391769E-6,1.5986636270007821E-4
36,199.73722262726548,4.625864383144842E-6,1.6449222708322304E-4
37,199.72203587429394,4.6512008992417055E-6,1.6914342798246475E-4
38,199.70627788276755,4.6737441005001595E-6,1.7381717208296492E-4
39,199.69050530248683,4.648380055151915E-6,1.7846555213811685E-4
40,199.67420074542787,4.706781518291624E-6,1.8317233365640847E-4
41,199.65773731536606,4.671590194414725E-6,1.878439238508232E-4
42,199.64079505096277,4.668045578362472E-6,1.9251196942918566E-4
43,199.62334449423184,4.633860605694734E-6,1.971458300348804E-4
44,199.605500964133,4.657161679453221E-6,2.0180299171433362E-4
45,199.58742646060642,4.5759796904903666E-6,2.06378971404824E-4
46,199.56883694610036,4.6086335731979016E-6,2.109876049780219E-4
47,199.55002089823344,4.6122353515632656E-6,2.1559984032958518E-4
48,199.53083965108772,4.608354322444576E-6,2.2020819465202977E-4
49,199.51164038884968,4.583992980966815E-6,2.247921876329966E-4
50,199.49206725437676,4.593080456735272E-6,2.2938526808973186E-4
51,199.47206022455495,4.585279337312153E-6,2.3397054742704403E-4
52,199.451750248997,4.550768315396792E-6,2.3852131574244082E-4
53,199.4309684611834,4.566169847350313E-6,2.4308748558979113E-4
54,199.40970538969577,4.589536507606843E-6,2.47677022097398E-4
55,199.38794125040292,4.611673873724322E-6,2.522886959711223E-4
56,199.36581448084746,4.630851741588888E-6,2.5691954771271116E-4
57,199.34339724676167,4.669314146338169E-6,2.6158886185904934E-4
58,199.32063605382731,4.661304306740521E-6,2.662501661657899E-4
59,199.2976352008503,4.6163011329539925E-6,2.708664672987439E-4
60,199.27452441173872,4.620475448484912E-6,2.7548694274722883E-4
61,199.25131530750883,4.615615596541111E-6,2.8010255834376994E-4
62,199.22782727344978,4.633750219153157E-6,2.847363085629231E-4
63,199.20420768629197,4.636682271944294E-6,2.893729908348674E-4
64,199.18036020117862,4.664236746603831E-6,2.940372275814713E-4
65,199.1564016138673,4.657616596932021E-6,2.986948441784033E-4
66,199.13234420914148,4.669677875736125E-6,3.033645220541394E-4
67,199.10750582467972,4.678905938219766E-6,3.080434279923592E-4
68,199.08247953942202,4.6807651190659715E-6,3.127241931114252E-4
69,199.05728334473315,4.690050111836403E-6,3.174142432232616E-4
70,199.03189824521672,4.6925991251444605E-6,3.2210684234840604E-4
71,199.005796047304,4.753096717128864E-6,3.268599390655349E-4
72,198.97966255357514,4.708501621737452E-6,3.3156844068727234E-4
73,198.95302593885012,4.738157837417209E-6,3.3630659852468953E-4
74,198.92600718571205,4.760998576966183E-6,3.4106759710165574E-4
75,198.8992653101974,4.709121500750249E-6,3.45776718602406E-4
76,198.87255570919274,4.712657246212201E-6,3.504893758486182E-4
77,198.84566294630315,4.675983598671249E-6,3.5516535944728943E-4
78,198.81874847655808,4.6538084131579405E-6,3.598191678604474E-4
79,198.79162485898794,4.658151260276078E-6,3.6447731912072343E-4
80,198.76415940015073,4.657359362473636E-6,3.6913467848319705E-4
81,198.73647891789966,4.618082488253271E-6,3.7375276097145033E-4
82,198.708312249269,4.669932954602315E-6,3.7842269392605264E-4
83,198.68022262324234,4.655081077724276E-6,3.830777750037769E-4
84,198.65188185238094,4.655288382686122E-6,3.8773306338646304E-4
85,198.62326679201658,4.5948060335704985E-6,3.923278694200335E-4
86,198.59437551054694,4.575017492495894E-6,3.969028869125294E-4
87,198.56577234826332,4.534831959225485E-6,4.0143771887175486E-4
88,198.53728585655514,4.496861307174684E-6,4.059345801789295E-4
89,198.50825353772345,4.546642281655061E-6,4.104812224605846E-4
90,198.47858798394384,4.554219334557553E-6,4.1503544179514215E-4
91,198.44831814471118,4.574310698868075E-6,4.1960975249401023E-4
92,198.41715231678546,4.616047489684575E-6,4.242257999836948E-4
93,198.38581867430614,4.5818087336184265E-6,4.288076087173132E-4
94,198.3539704808057,4.60852457238739E-6,4.334161332897006E-4
95,198.3216575514123,4.593996788119285E-6,4.380101300778199E-4
96,198.28934815106857,4.571858581311461E-6,4.4258198865913134E-4
97,198.25714400211297,4.560477039433879E-6,4.471424656985652E-4
98,198.22446937113045,4.544356495077118E-6,4.516868221936423E-4
99,198.19167496561377,4.534756210021996E-6,4.562215784036643E-4
100,198.15878188783458,4.525411911316643E-6,4.6074699031498095E-4
101,198.1250182077378,4.599597410770876E-6,4.653465877257518E-4
102,198.09088091350282,4.616304913846587E-6,4.699628926395984E-4
103,198.0565854797771,4.595981675829475E-6,4.7455887431542787E-4
104,198.02250031990087,4.591833397517234E-6,4.791507077129451E-4
105,197.98829955355663,4.603155229318604E-6,4.837538629422637E-4
106,197.95394469864698,4.5705773512956454E-6,4.883244402935594E-4
107,197.9193243136787,4.509583797020359E-6,4.928340240905797E-4
108,197.88417393123302,4.5481616920404665E-6,4.973821857826202E-4
109,197.84914162617136,4.5773183009529935E-6,5.019595040835731E-4
110,197.81374513029613,4.6213281532133524E-6,5.065808322367865E-4
111,197.7784336842625,4.6208269931801765E-6,5.112016592299667E-4
112,197.74303764743615,4.624586737242171E-6,5.158262459672089E-4
113,197.70762350108464,4.567044002311276E-6,5.203932899695201E-4
114,197.67131774843836,4.6629084914806635E-6,5.250561984610008E-4
115,197.63523013297808,4.626641817586414E-6,5.296828402785871E-4
116,197.59945026161893,4.5866715434959084E-6,5.342695118220831E-4
117,197.56342509083314,4.593434481329632E-6,5.388629463034127E-4
118,197.52691274656962,4.606067486404384E-6,5.43469013789817E-4
119,197.49043350881806,4.5965840825637096E-6,5.480655978723808E-4
120,197.45340190209606,4.557911849639041E-6,5.526235097220198E-4
121,197.41682834312093,4.54978902388457E-6,5.571732987459044E-4
122,197.37985253647392,4.577944790707321E-6,5.617512435366118E-4
123,197.34225348013297,4.55861639508301E-6,5.663098599316947E-4
124,197.3046412353954,4.560151920901478E-6,5.708700118525962E-4
125,197.26787049801962,4.5623816450552985E-6,5.754323934976515E-4
126,197.2309097110254,4.547221103675937E-6,5.799796146013275E-4
127,197.19391427693083,4.5477476668453884E-6,5.845273622681729E-4
128,197.15686544073782,4.587973401864656E-6,5.891153356700375E-4
129,197.1196223894394,4.636574173399703E-6,5.937519098434372E-4
130,197.0833183074909,4.576235871897788E-6,5.983281457153351E-4
131,197.0467467465619,4.553672830930556E-6,6.028818185462656E-4
132,197.00983311264537,4.543190525954189E-6,6.074250090722197E-4
133,196.97245568270768,4.5826096530488045E-6,6.120076187252685E-4
134,196.93496734542293,4.606009410391948E-6,6.166136281356605E-4
135,196.89827240696943,4.5866728633272105E-6,6.212003009989877E-4
136,196.86135358673127,4.588953049586897E-6,6.257892540485746E-4
137,196.82393031929763,4.591963738384422E-6,6.30381217786959E-4
138,196.78585856159202,4.580384569278025E-6,6.34961602356237E-4
139,196.7474485848323,4.609943724635339E-6,6.395715460808724E-4
140,196.70970993466028,4.547317473301042E-6,6.441188635541734E-4
141,196.67203174777114,4.534312912924429E-6,6.486531764670979E-4
142,196.63298759663263,4.522971461752215E-6,6.531761479288502E-4
143,196.59358345449036,4.511351636181208E-6,6.576874995650314E-4
144,196.5541070186595,4.455580132132566E-6,6.621430796971639E-4
145,196.51407336767952,4.44131405356996E-6,6.665843937507339E-4
146,196.47374266343184,4.480999653831451E-6,6.710653934045653E-4
147,196.43277784876986,4.4555913094787946E-6,6.755209847140441E-4
148,196.3918241744996,4.433918235551393E-6,6.799549029495955E-4
149,196.3512740513791,4.437004637489672E-6,6.843919075870851E-4
150,196.31107751602977,4.378609723497033E-6,6.887705173105822E-4
151,196.26981324088885,4.448572513413017E-6,6.932190898239952E-4
152,196.2284934417857,4.442767445418055E-6,6.976618572694133E-4
153,196.18605665129502,4.510081291829438E-6,7.021719385612427E-4
154,196.14260831859988,4.5805982187689364E-6,7.067525367800117E-4
155,196.09887387963536,4.606076186030421E-6,7.113586129660421E-4
156,196.05477288565282,4.607806044253928E-6,7.15966419010296E-4
157,196.01037323163627,4.550160386606027E-6,7.20516579396902E-4
158,195.96608831821752,4.567501267529949E-6,7.250840806644319E-4
159,195.92158150345563,4.53066236179087E-6,7.296147430262228E-4
160,195.87651509065276,4.5412030021675E-6,7.341559460283903E-4
161,195.83176840159936,4.494200651062222E-6,7.386501466794525E-4
162,195.78646543011527,4.446368895284942E-6,7.430965155747375E-4
163,195.7395836096645,4.49047168708582E-6,7.475869872618232E-4
164,195.69244852737552,4.498562109000629E-6,7.520855493708239E-4
165,195.64559308120823,4.5199491765995445E-6,7.566054985474234E-4
166,195.59844707396041,4.5075059806314535E-6,7.611130045280549E-4
167,195.55166037218083,4.480242974930587E-6,7.655932475029855E-4
168,195.50539982186132,4.431627545645858E-6,7.700248750486313E-4
169,195.45809832433483,4.502619605500657E-6,7.74527494654132E-4
170,195.4110750094219,4.494448824380011E-6,7.79021943478512E-4
171,195.36443530973244,4.5038349372503245E-6,7.835257784157623E-4
172,195.31904461250073,4.460773685431369E-6,7.879865521011936E-4
173,195.27296484233636,4.426752047201591E-6,7.924133041483952E-4
174,195.22719935933745,4.434220929184473E-6,7.968475250775797E-4
175,195.18221411064124,4.396703921739913E-6,8.012442289993196E-4
176,195.13758697462882,4.395602045721471E-6,8.056398310450411E-4
177,195.0932995194063,4.4036692977579E-6,8.10043500342799E-4
178,195.04912879570975,4.4020728565730165E-6,8.14445573199372E-4
179,195.0054348046818,4.376285563975529E-6,8.188218587633475E-4
180,194.9611397539098,4.344520789437494E-6,8.23166379552785E-4
181,194.916201838272,4.329157467292327E-6,8.274955370200773E-4
182,194.87116929374142,4.312968063225476E-6,8.318085050833028E-4
183,194.8254329312474,4.292871185579937E-6,8.361013762688828E-4
184,194.77904255225226,4.3383446622172335E-6,8.404397209311001E-4
185,194.73225467079814,4.381851784480681E-6,8.448215727155807E-4
186,194.68516936254397,4.417968863941488E-6,8.492395415795222E-4
187,194.63758537910576,4.4243133316213574E-6,8.536638549111436E-4
188,194.58933522357756,4.440625068082954E-6,8.581044799792266E-4
189,194.54085548521994,4.439679241971802E-6,8.625441592211983E-4
190,194.49293418017893,4.449843352614966E-6,8.669940025738133E-4
191,194.44371970166412,4.430309005545966E-6,8.714243115793593E-4
192,194.39495405444796,4.427871587592056E-6,8.758521831669513E-4
193,194.3465259383565,4.382484061140847E-6,8.802346672280921E-4
194,194.2981717271441,4.385399826458298E-6,8.846200670545504E-4
195,194.24970649275284,4.379757979469335E-6,8.889998250340197E-4
196,194.20136128770105,4.396528927440543E-6,8.933963539614603E-4
197,194.15419392752614,4.384920268219617E-6,8.977812742296799E-4
198,194.1079346389512,4.376682903164765E-6,9.021579571328447E-4
199,194.06237176617327,4.331211961670459E-6,9.064891690945151E-4
200,194.01740951893382,4.300253846816332E-6,9.107894229413314E-4
201,193.9726276859962,4.260299130671962E-6,9.150497220720033E-4
202,193.92780655073446,4.194766697969036E-6,9.192444887699724E-4
203,193.881848743324,4.222045725716561E-6,9.234665344956889E-4
204,193.83581926376604,4.1989419227832895E-6,9.276654764184722E-4
205,193.78883693841928,4.234133222708609E-6,9.318996096411808E-4
206,193.7409822854527,4.274932887604683E-6,9.361745425287855E-4
207,193.69322869576118,4.314935310881622E-6,9.404894778396671E-4
208,193.64535272444976,4.335019126233559E-6,9.448244969659006E-4
209,193.59825964555426,4.310761790970734E-6,9.491352587568713E-4
210,193.55071909837193,4.321420560679184E-6,9.534566793175505E-4
211,193.5036952082584,4.353694292121819E-6,9.578103736096724E-4
212,193.457004025511,4.335614435265011E-6,9.621459880449374E-4
213,193.40955958426122,4.3504546905324575E-6,9.664964427354699E-4
214,193.36199218550934,4.354018108894709E-6,9.708504608443646E-4
215,193.31547787273757,4.300435874463488E-6,9.751508967188281E-4
216,193.26818743884792,4.309773831972616E-6,9.794606705508008E-4
217,193.2196797839581,4.3238348129597625E-6,9.837845053637605E-4
218,193.17106210051642,4.30028070991693E-6,9.880847860736775E-4
219,193.12229926854937,4.3002505258707144E-6,9.923850365995482E-4
220,193.0732424961965,4.320280844721038E-6,9.967053174442693E-4
221,193.0240145715169,4.345478887244805E-6,0.001001050796331514
222,192.97512891752757,4.281929301254598E-6,0.0010053327256327686
223,192.9252881886495,4.353769850808728E-6,0.0010096864954835772
224,192.87679013967994,4.318861166536759E-6,0.001014005356650114
225,192.82815509354924,4.318990964725701E-6,0.0010183243476148398
226,192.77938399428132,4.358853736619073E-6,0.0010226832013514589
227,192.7295227090691,4.382418831855876E-6,0.0010270656201833148
228,192.6804918390694,4.395564339666474E-6,0.0010314611845229813
229,192.63093024146613,4.4366008320501414E-6,0.0010358977853550315
230,192.58052241954604,4.4319221955193015E-6,0.0010403297075505507
231,192.5298395235673,4.432014640652844E-6,0.0010447617221912035
232,192.4793434752597,4.403616200575062E-6,0.0010491653383917785
233,192.42901439511158,4.37968546275418E-6,0.0010535450238545326
234,192.3780510211943,4.354314942321588E-6,0.0010578993387968542
235,192.32705714237065,4.343243616766365E-6,0.0010622425824136205
236,192.27577352805136,4.339716686320388E-6,0.001066582299099941
237,192.22428564620856,4.320911184901232E-6,0.0010709032102848423
238,192.1724880003448,4.321536681657207E-6,0.0010752247469664996
239,192.1210923287508,4.288543264847519E-6,0.001079513290231347
240,192.0693260815624,4.27283433949768E-6,0.0010837861245708447
241,192.01702651720265,4.307232432084168E-6,0.001088093357002929
242,191.96603967777344,4.236308020169341E-6,0.0010923296650230984
243,191.91489660211397,4.219448022781308E-6,0.0010965491130458798
244,191.86499211890845,4.206888342525528E-6,0.0011007560013884053
245,191.81583629998582,4.243464805611401E-6,0.0011049994661940167
246,191.76713253732856,4.254499543475358E-6,0.001109253965737492
247,191.71771029479606,4.250448586681789E-6,0.001113504414324174
248,191.66847155713828,4.2511450383958235E-6,0.0011177555593625697
249,191.6193499250216,4.261477493126424E-6,0.0011220170368556961
250,191.56996200826325,4.2868666243126784E-6,0.0011263039034800088
251,191.52217413406072,4.22603958304897E-6,0.001130529943063058
252,191.4742580800643,4.2608477457269895E-6,0.0011347907908087849
253,191.42617733687536,4.277779131226687E-6,0.0011390685699400117
254,191.3778790012613,4.274301820831033E-6,0.0011433428717608426
255,191.32894646247303,4.280006601069302E-6,0.001147622878361912
256,191.2799880189691,4.24675202121965E-6,0.0011518696303831316
257,191.22977918274208,4.30541913811326E-6,0.001156175049521245
258,191.18004018368933,4.202098122427494E-6,0.0011603771476436724
259,191.13038441973194,4.213703440076873E-6,0.0011645908510837493
260,191.0808724625454,4.216792617755611E-6,0.0011688076437015049
261,191.0314763080679,4.1853036974813525E-6,0.0011729929473989862
262,190.98126338858063,4.2402111442763795E-6,0.0011772331585432625
263,190.93101040669802,4.231996057646155E-6,0.0011814651546009087
264,190.88113603816848,4.249288001209677E-6,0.0011857144426021184
265,190.831524166034,4.258144806809525E-6,0.001189972587408928
266,190.78205682152057,4.227696103538575E-6,0.0011942002835124666
267,190.732131167145,4.282724457019306E-6,0.001198483007969486
268,190.68264828904483,4.217948861253786E-6,0.0012027009568307398
269,190.63142965077418,4.263474359468746E-6,0.0012069644311902086
270,190.58065559861478,4.245903782595361E-6,0.001211210334972804
271,190.53041122600484,4.213029991018965E-6,0.0012154233649638228
272,190.48019074857314,4.243505091546752E-6,0.0012196668700553697
273,190.4310706027795,4.182785387546933E-6,0.0012238496554429167
274,190.38100774401696,4.220896960557918E-6,0.0012280705524034747
275,190.33056127927608,4.2730866364679374E-6,0.0012323436390399426
276,190.28124972528846,4.207671995730932E-6,0.0012365513110356736
277,190.2319798159184,4.227308512700948E-6,0.0012407786195483745
278,190.18206711567015,4.250108583662425E-6,0.0012450287281320369
279,190.13034970853096,4.267247334659214E-6,0.001249295975466696
280,190.07832641317177,4.322287565807837E-6,0.001253618263032504
281,190.02543314374952,4.333385232342867E-6,0.0012579516482648467
282,189.97178547576507,4.326750151724458E-6,0.0012622783984165711
283,189.91839221194644,4.320921718469257E-6,0.0012665993201350404
284,189.86528487256103,4.328361066023935E-6,0.0012709276812010643
285,189.811460114094,4.353526440671547E-6,0.001275281207641736
286,189.7573175374268,4.384202565349202E-6,0.001279665410207085
287,189.70290349133393,4.373650647104391E-6,0.0012840390608541894
288,189.64813938343252,4.360274862224411E-6,0.0012883993357164138
289,189.59149791690015,4.352011832120361E-6,0.0012927513475485342
290,189.53466986469513,4.387449378700217E-6,0.0012971387969272345
291,189.47781532401956,4.394791877581537E-6,0.001301533588804816
292,189.42144114307175,4.3903773269174625E-6,0.0013059239661317335
293,189.36732967386018,4.315182430114642E-6,0.001310239148561848
294,189.31321982769475,4.308309709277195E-6,0.0013145474582711254
295,189.25764277667471,4.355824292432026E-6,0.0013189032825635574
296,189.20179014154706,4.366780852348783E-6,0.001323270063415906
297,189.14619836874027,4.394818941487208E-6,0.0013276648823573932
298,189.09108399077363,4.363242559929688E-6,0.0013320281249173229
299,189.0365420785762,4.346103881785067E-6,0.001336374228799108
300,188.98194363502037,4.3695273228341784E-6,0.0013407437561219421
301,188.9266188150225,4.3731224034732675E-6,0.0013451168785254153
302,188.87135204344224,4.372440388050154E-6,0.0013494893189134655
303,188.81552061731512,4.3822313207625535E-6,0.001353871550234228
304,188.7589969293897,4.396965848976228E-6,0.001358268516083204
305,188.70284299519682,4.340327573364905E-6,0.001362608843656569
306,188.64764681316018,4.3244919303193255E-6,0.0013669333355868884
307,188.59202504777278,4.334185773838354E-6,0.0013712675213607267
