#t,ESS,tempDiff,temp
0,200.00000000000065,0.0,0.0
1,199.99980000000014,4.715423236073626E-6,4.715423236073626E-6
2,199.99920273380673,4.745233170887084E-6,9.460656406960709E-6
3,199.99820980141246,4.726743588873046E-6,1.4187399995833756E-5
4,199.9968229989579,4.744747483067191E-6,1.8932147478900946E-5
5,199.99504757825025,4.72203025013652E-6,2.3654177729037465E-5
6,199.992884341921,4.704799668058885E-6,2.835897739709635E-5
7,199.99033522808872,4.711413009583626E-6,3.307039040667998E-5
8,199.9874115423509,4.685354303422002E-6,3.775574471010198E-5
9,199.98411012129503,4.691199314109079E-6,4.2446944024211063E-5
10,199.98045356940133,4.706921372293745E-6,4.715386539650481E-5
11,199.9764132741387,4.765259124514905E-6,5.191912452101972E-5
12,199.97199567342724,4.774436258767807E-6,5.669356077978752E-5
13,199.96720800577106,4.797382804231533E-6,6.149094358401906E-5
14,199.9620399515178,4.758426865768644E-6,6.62493704497877E-5
15,199.95649903100878,4.7685602893680754E-6,7.101793073915578E-5
16,199.95058206479567,4.785705850443489E-6,7.580363658959926E-5
17,199.94429263810392,4.7763465061573595E-6,8.057998309575662E-5
18,199.9376376265342,4.790163606382324E-6,8.537014670213894E-5
19,199.93061739505848,4.794914647093999E-6,9.016506134923293E-5
20,199.92324069069187,4.818925320162838E-6,9.498398666939577E-5
21,199.9155335690796,4.78843093744961E-6,9.977241760684538E-5
22,199.90746919688218,4.857391067977575E-6,1.0462980867482295E-4
23,199.8990248199828,4.867137155677057E-6,1.094969458305E-4
24,199.89024715866032,4.897518203515359E-6,1.1439446403401536E-4
25,199.8811524128727,4.922781511227268E-6,1.1931724554524262E-4
26,199.87172400229878,4.9904957586921055E-6,1.2430774130393473E-4
27,199.8619378504437,5.044972000566988E-6,1.293527133045017E-4
28,199.8518219516578,5.048419204307359E-6,1.3440113250880908E-4
29,199.84133843730308,5.055958797327611E-6,1.394570913061367E-4
30,199.83056683827735,5.0917312361518104E-6,1.445488225422885E-4
31,199.81947318908934,5.1317731297143986E-6,1.496805956720029E-4
32,199.8081139363335,5.112686014027733E-6,1.5479328168603064E-4
33,199.79638019423825,5.057812902425791E-6,1.5985109458845642E-4
34,199.7842702854238,5.010340546382087E-6,1.648614351348385E-4
35,199.77186323624207,4.9265400641541115E-6,1.6978797519899262E-4
36,199.75915081506025,4.930298400539164E-6,1.747182735995318E-4
37,199.74610516203853,4.914901806334234E-6,1.7963317540586603E-4
38,199.73268252358994,4.975058721904973E-6,1.84608234127771E-4
39,199.71890352816183,5.052576976513578E-6,1.8966081110428456E-4
40,199.7048408042811,5.072152224477655E-6,1.9473296332876222E-4
41,199.69059510182902,4.9892367842024485E-6,1.9972220011296466E-4
42,199.6761000377402,4.9715578066347305E-6,2.0469375791959938E-4
43,199.66127193143623,5.0312534358774314E-6,2.0972501135547682E-4
44,199.64608223481355,5.115165818453989E-6,2.1484017717393082E-4
45,199.6305167412468,5.095063095166909E-6,2.1993524026909774E-4
46,199.61463401178614,5.067183695575788E-6,2.2500242396467353E-4
47,199.59842492999275,5.091484334313374E-6,2.3009390829898692E-4
48,199.5817950721136,5.043077383191487E-6,2.351369856821784E-4
49,199.56496599955517,5.079509352362355E-6,2.4021649503454075E-4
50,199.54799284618355,5.093969347770684E-6,2.453104643823114E-4
51,199.53076079562828,5.043619357751589E-6,2.50354083740063E-4
52,199.51319747517553,5.043667909391417E-6,2.553977516494544E-4
53,199.49524743505285,5.0389748417189184E-6,2.6043672649117333E-4
54,199.4770682135261,5.05043875039923E-6,2.6548716524157256E-4
55,199.45859017755566,5.103506647298179E-6,2.7059067188887074E-4
56,199.43987284190013,5.13535658375497E-6,2.757260284726257E-4
57,199.42075185321832,5.195463149892381E-6,2.809214916225181E-4
58,199.40136840955316,5.197054210050913E-6,2.86118545832569E-4
59,199.38178070260358,5.217641551511275E-6,2.9133618738408026E-4
60,199.36184849126877,5.28050347193041E-6,2.9661669085601067E-4
61,199.34170924537443,5.293944293413464E-6,3.019106351494241E-4
62,199.32118194504952,5.216936679562919E-6,3.07127571828987E-4
63,199.30037351703726,5.192280893308828E-6,3.1231985272229585E-4
64,199.27925852314198,5.127357647672163E-6,3.17447210369968E-4
65,199.2579974720229,5.1555812334231804E-6,3.226027916033912E-4
66,199.23654842594033,5.154412380549042E-6,3.277572039839402E-4
67,199.2148104174786,5.172099982100819E-6,3.3292930396604107E-4
68,199.19266681193474,5.196847125935597E-6,3.3812615109197667E-4
69,199.17036634256982,5.244709827058586E-6,3.4337086091903524E-4
70,199.14769809694036,5.273046402807225E-6,3.486439073218425E-4
71,199.12490762535992,5.263108968796261E-6,3.5390701629063874E-4
72,199.10185570758586,5.336110524888384E-6,3.5924312681552713E-4
73,199.07836678862637,5.32121289408219E-6,3.645643397096093E-4
74,199.0546402536661,5.306294955351452E-6,3.6987063466496073E-4
75,199.03054104395156,5.334720552209376E-6,3.752053552171701E-4
76,199.0060886445904,5.340184160580417E-6,3.805455393777505E-4
77,198.98136162598928,5.369890392404745E-6,3.8591542977015525E-4
78,198.95635986846517,5.411949658956393E-6,3.913273794291116E-4
79,198.9310287330085,5.406940813577411E-6,3.96734320242689E-4
80,198.9057165706398,5.3907963134091506E-6,4.021251165560982E-4
81,198.88006410615287,5.32522217671645E-6,4.0745033873281465E-4
82,198.854215533033,5.319452649259985E-6,4.127697913820746E-4
83,198.82814837051063,5.312206167776273E-6,4.180819975498509E-4
84,198.8017950470227,5.247588075278086E-6,4.2332958562512897E-4
85,198.77507563619264,5.220935675493641E-6,4.285505213006226E-4
86,198.74812462367186,5.176206716669292E-6,4.337267280172919E-4
87,198.7209454090059,5.210822404002608E-6,4.389375504212945E-4
88,198.69371232503556,5.12670358569791E-6,4.440642540069924E-4
89,198.66607528457303,5.110426433838786E-6,4.4917468044083117E-4
90,198.63808053731015,5.109826138099886E-6,4.5428450657893104E-4
91,198.6099074476268,5.1306800965779345E-6,4.59415186675509E-4
92,198.5816351496594,5.090161233497152E-6,4.6450534790900617E-4
93,198.5529282915929,5.113935614323732E-6,4.696192835233299E-4
94,198.52388069692842,5.092963554135078E-6,4.74712247077465E-4
95,198.49476439913795,5.078684849506932E-6,4.797909319269719E-4
96,198.46573982869197,5.0722449762636805E-6,4.848631769032356E-4
97,198.43623782483243,5.01562563844574E-6,4.898788025416813E-4
98,198.40637767190415,5.002068428679659E-6,4.94880870970361E-4
99,198.37655109937933,4.9736699651853856E-6,4.998545409355463E-4
100,198.34659762016196,4.969914347039834E-6,5.048244552825862E-4
101,198.31655117817922,4.999882773751726E-6,5.09824338056338E-4
102,198.28635752904268,5.029899526236194E-6,5.148542375825742E-4
103,198.25613609073181,4.9900193312624316E-6,5.198442569138367E-4
104,198.22556368031272,4.9781491510071845E-6,5.248224060648438E-4
105,198.19516739201077,5.070084679521525E-6,5.298924907443654E-4
106,198.16463590631423,5.115070707106306E-6,5.350075614514717E-4
107,198.13391758659668,5.08853873201077E-6,5.400961001834825E-4
108,198.10280665483842,5.025488966924841E-6,5.451215891504074E-4
109,198.07176573188752,5.087069511361841E-6,5.502086586617692E-4
110,198.04014646333977,5.063122773072669E-6,5.552717814348418E-4
111,198.00836487628743,5.108232097850376E-6,5.603800135326922E-4
112,197.97637080236936,5.019697968310047E-6,5.653997115010023E-4
113,197.94412110252028,5.026134648163776E-6,5.704258461491661E-4
114,197.911535043505,4.980174564850479E-6,5.754060207140165E-4
115,197.87887699072252,4.9769407532452995E-6,5.803829614672619E-4
116,197.8465481179689,4.941070351883954E-6,5.853240318191459E-4
117,197.8137553466598,4.936357362088772E-6,5.902603891812347E-4
118,197.78098190924558,4.92766169832389E-6,5.951880508795586E-4
119,197.74801861212006,4.906351436918993E-6,6.000944023164776E-4
120,197.71493924954837,4.866523840726817E-6,6.049609261572044E-4
121,197.68131921436984,4.908543248828769E-6,6.098694694060332E-4
122,197.64777522618016,4.897640582713798E-6,6.147671099887471E-4
123,197.61389366876924,4.919624114816737E-6,6.196867341035638E-4
124,197.57974088520854,4.893505019134099E-6,6.245802391226979E-4
125,197.54561291931577,4.824147472682531E-6,6.294043865953805E-4
126,197.51126068959508,4.809079172657144E-6,6.342134657680376E-4
127,197.47638166589522,4.814710180782875E-6,6.390281759488205E-4
128,197.4414896243213,4.795791686288127E-6,6.438239676351087E-4
129,197.40730418807593,4.795451080289327E-6,6.486194187153981E-4
130,197.37256363881912,4.799138477019723E-6,6.534185571924179E-4
131,197.33788158382876,4.75357758933919E-6,6.581721347817571E-4
132,197.30333779643348,4.677032014526865E-6,6.62849166796284E-4
133,197.2690063122498,4.648726675551649E-6,6.674978934718357E-4
134,197.23439670080444,4.614806955686453E-6,6.721127004275221E-4
135,197.1998788115333,4.584214445535393E-6,6.766969148730575E-4
136,197.16516657786062,4.626216601954372E-6,6.813231314750118E-4
137,197.1302115563362,4.662002221757503E-6,6.859851336967693E-4
138,197.09511606134612,4.618267322016055E-6,6.906034010187854E-4
139,197.05976425221775,4.670148430349336E-6,6.952735494491347E-4
140,197.0239922603379,4.638817034582626E-6,6.999123664837173E-4
141,196.98814502818783,4.63191220097668E-6,7.04544278684694E-4
142,196.95192188665234,4.620313879013421E-6,7.091645925637074E-4
143,196.91549048814502,4.62235718578924E-6,7.137869497494966E-4
144,196.87888447319577,4.6574266891878594E-6,7.184443764386844E-4
145,196.84177349057705,4.664918912586645E-6,7.231092953512711E-4
146,196.80492955563736,4.659394478037922E-6,7.277686898293091E-4
147,196.76810405708986,4.744718697696831E-6,7.325134085270059E-4
148,196.73062600228212,4.724285047978384E-6,7.372376935749843E-4
149,196.6928502870167,4.814812433543697E-6,7.42052506008528E-4
150,196.65511128173623,4.8317332829527216E-6,7.468842392914808E-4
151,196.6173005039222,4.8692523958318926E-6,7.517534916873127E-4
152,196.57927116015205,4.828930670788951E-6,7.565824223581016E-4
153,196.54061326703405,4.853724465610302E-6,7.614361468237119E-4
154,196.50132792018422,4.8089482591948714E-6,7.662450950829068E-4
155,196.4626728762237,4.828234207618231E-6,7.71073329290525E-4
156,196.42433333855342,4.839979764707314E-6,7.759133090552323E-4
157,196.3854963203279,4.837903178505914E-6,7.807512122337382E-4
158,196.34638490403393,4.858765511747289E-6,7.856099777454854E-4
159,196.30719904040131,4.862722511328559E-6,7.90472700256814E-4
160,196.26768821661346,4.8376758407136785E-6,7.953103760975276E-4
161,196.22813753261036,4.787289828440204E-6,8.000976659259678E-4
162,196.1882374996674,4.830390890316958E-6,8.049280568162848E-4
163,196.148490728184,4.875180406154743E-6,8.098032372224395E-4
164,196.1080706542374,4.885679610227134E-6,8.146889168326666E-4
165,196.06669499290183,4.887280893615755E-6,8.195761977262823E-4
166,196.02483879583065,4.919678510444514E-6,8.244958762367268E-4
167,195.98271387428466,4.827061226466343E-6,8.293229374631932E-4
168,195.94032956276146,4.787517894996861E-6,8.341104553581901E-4
169,195.8976193259337,4.707758176629224E-6,8.388182135348192E-4
170,195.85459301499628,4.678194406151852E-6,8.43496407940971E-4
171,195.81158723147163,4.713169638898762E-6,8.482095775798698E-4
172,195.76806359636583,4.6575466788147364E-6,8.528671242586846E-4
173,195.72443900188622,4.640126607487024E-6,8.575072508661717E-4
174,195.68056750101468,4.617089631771626E-6,8.621243404979433E-4
175,195.63639369459085,4.643486074403661E-6,8.66767826572347E-4
176,195.5920023807013,4.625322869028992E-6,8.71393149441376E-4
177,195.5475149199722,4.684932818691965E-6,8.76078082260068E-4
178,195.50285380339494,4.659460924229285E-6,8.807375431842973E-4
179,195.45807850077023,4.6360030001282756E-6,8.853735461844255E-4
180,195.41281754198786,4.596459571322791E-6,8.899700057557483E-4
181,195.3675633498137,4.656909065601863E-6,8.946269148213502E-4
182,195.32160612629468,4.704804081024617E-6,8.993317189023749E-4
183,195.27548547228432,4.6892900903363055E-6,9.040210089927112E-4
184,195.22879582530086,4.690596448469789E-6,9.08711605441181E-4
185,195.1820345906309,4.678696862012531E-6,9.133903023031936E-4
186,195.13489219279563,4.696984080119664E-6,9.180872863833133E-4
187,195.0878953290952,4.729511488922889E-6,9.228167978722362E-4
188,195.04105018096772,4.734746133092405E-6,9.275515440053286E-4
189,194.99337693077453,4.666921661513676E-6,9.322184656668423E-4
190,194.94596284440468,4.6495428574430525E-6,9.368680085242853E-4
191,194.89799580674458,4.673836825312654E-6,9.41541845349598E-4
192,194.85030042037778,4.687623946763572E-6,9.462294692963616E-4
193,194.8030893985854,4.6596607559567395E-6,9.508891300523183E-4
194,194.75524367268807,4.6575433389007E-6,9.55546673391219E-4
195,194.70714705767725,4.601725948777385E-6,9.601483993399964E-4
196,194.65947686148928,4.621535912205813E-6,9.647699352522022E-4
197,194.61159465346725,4.597660816968512E-6,9.693675960691706E-4
198,194.5638521891732,4.577250107477955E-6,9.739448461766486E-4
199,194.5165933368345,4.562706826878123E-6,9.785075530035269E-4
200,194.46935077180777,4.575037022074396E-6,9.830825900256012E-4
201,194.42172244192682,4.52465312730435E-6,9.876072431529055E-4
202,194.37418149424602,4.532176023377028E-6,9.921394191762826E-4
203,194.32604763746903,4.495143371560658E-6,9.966345625478433E-4
204,194.2774502681475,4.508035848240716E-6,0.001001142598396084
205,194.2282750618537,4.528588335454191E-6,0.001005671186731538
206,194.17878448566012,4.4760390317808244E-6,0.001010147225763319
207,194.12921097087923,4.47179938644735E-6,0.0010146190251497662
208,194.07969384453193,4.439171407882137E-6,0.0010190581965576484
209,194.0300594098654,4.453457514308209E-6,0.0010235116540719567
210,193.98003465008168,4.425535239577957E-6,0.0010279371893115346
211,193.9297986384111,4.401150779557142E-6,0.0010323383400910916
212,193.87945978738782,4.454983500067901E-6,0.0010367933235911596
213,193.82877799186602,4.374025367348728E-6,0.0010411673489585083
214,193.77819699661592,4.450618206905034E-6,0.0010456179671654133
215,193.72697443486985,4.458647741040396E-6,0.0010500766149064537
216,193.675335036342,4.400723739874556E-6,0.0010544773386463283
217,193.62351475860217,4.4310841644634155E-6,0.0010589084228107917
218,193.57217178607502,4.371740234001479E-6,0.0010632801630447932
219,193.52054241720936,4.351445194147475E-6,0.0010676316082389406
220,193.46816722893223,4.328995959379483E-6,0.0010719606041983201
221,193.41619893861687,4.3209157662938444E-6,0.001076281519964614
222,193.36436240904766,4.312614060090625E-6,0.0010805941340247046
223,193.3125854572062,4.257767081164539E-6,0.0010848519011058691
224,193.2606613635082,4.25115810790617E-6,0.0010891030592137753
225,193.20832268740043,4.257861385866753E-6,0.0010933609205996421
226,193.1558834866036,4.2680986228391455E-6,0.0010976290192224812
227,193.1030819189746,4.255642586020776E-6,0.001101884661808502
228,193.0500072483436,4.300473153659837E-6,0.0011061851349621617
229,192.99725511423406,4.31006623574685E-6,0.0011104952011979086
230,192.9434700235695,4.287518087188849E-6,0.0011147827192850973
231,192.88970398927435,4.326305922233296E-6,0.0011191090252073307
232,192.83549539749785,4.310038573955406E-6,0.001123419063781286
233,192.78102501260298,4.325990336903514E-6,0.0011277450541181896
234,192.72662617898675,4.249240753406228E-6,0.0011319942948715958
235,192.67274129715292,4.270999676768849E-6,0.0011362652945483647
236,192.6190480327667,4.297703989948042E-6,0.0011405629985383127
237,192.5664236492271,4.233212851906516E-6,0.0011447962113902191
238,192.514150617621,4.222027891568378E-6,0.0011490182392817874
239,192.46170043631184,4.199633412125721E-6,0.0011532178726939132
240,192.40903201184236,4.29105385650601E-6,0.0011575089265504193
241,192.3556416577152,4.283022956719827E-6,0.001161791949507139
242,192.30264436262647,4.313006489011141E-6,0.0011661049559961501
243,192.24995842954746,4.269142404438296E-6,0.0011703740984005885
244,192.19764569715915,4.32084485122276E-6,0.0011746949432518113
245,192.14516506270337,4.295390886501151E-6,0.0011789903341383125
246,192.09268859797092,4.268570327279417E-6,0.001183258904465592
247,192.04000018724662,4.226138508261961E-6,0.001187485042973854
248,191.9871991449641,4.2216762491695975E-6,0.0011917067192230234
249,191.934220867434,4.168971836721953E-6,0.0011958756910597453
250,191.88109738208695,4.16020472457507E-6,0.0012000358957843203
251,191.8282558355054,4.156190667089259E-6,0.0012041920864514096
252,191.77555812833833,4.164559137542113E-6,0.0012083566455889517
253,191.72309736816285,4.144552272644714E-6,0.0012125011978615964
254,191.6701022804634,4.169619553168317E-6,0.0012166708174147648
255,191.61739610790303,4.108173776376064E-6,0.001220778991191141
256,191.56443038569032,4.057786872844005E-6,0.001224836778063985
257,191.51172455156325,4.050560916266961E-6,0.001228887338980252
258,191.45891231577707,4.086539600452398E-6,0.0012329738785807043
259,191.40582247431902,4.084748520697697E-6,0.0012370586271014021
260,191.3519928207833,4.085574803778773E-6,0.001241144201905181
261,191.29748368735352,4.078193902046555E-6,0.0012452223958072275
262,191.2430202078899,4.089195274600199E-6,0.0012493115910818277
263,191.1888568501824,4.0740026967979736E-6,0.0012533855937786257
264,191.1347511712941,4.033768438644395E-6,0.0012574193622172701
265,191.08005141589632,4.0208060878172685E-6,0.0012614401683050875
266,191.0256057215622,4.091581279773869E-6,0.0012655317495848613
267,190.97089284589515,4.092154516035634E-6,0.001269623904100897
268,190.91563085889572,4.1015619600367145E-6,0.0012737254660609336
269,190.8595988426237,4.120870883306925E-6,0.0012778463369442405
270,190.80386219936818,4.122087019472841E-6,0.0012819684239637134
271,190.7484083745748,4.124624124291447E-6,0.0012860930480880048
272,190.6939762186914,4.2512504117747E-6,0.0012903442984997795
273,190.63978372749062,4.234183113167843E-6,0.0012945784816129472
274,190.58525535666328,4.246320969239E-6,0.0012988248025821863
275,190.52974651081047,4.235668693947306E-6,0.0013030604712761336
276,190.4739868126322,4.256543428791191E-6,0.0013073170147049247
277,190.41788313532467,4.230371071745425E-6,0.00131154738577667
278,190.36203049794662,4.177575739657202E-6,0.0013157249615163274
279,190.30630527405728,4.168566607437804E-6,0.0013198935281237651
280,190.25002806698996,4.192937613198352E-6,0.0013240864657369635
281,190.19321418681318,4.172466432870293E-6,0.0013282589321698339
282,190.1359412004272,4.194594915534799E-6,0.0013324535270853686
283,190.07904557497176,4.2303593074648585E-6,0.0013366838863928334
284,190.02250015020968,4.225555396729769E-6,0.0013409094417895632
285,189.96643161129086,4.270870455689305E-6,0.0013451803122452525
286,189.9097913550134,4.276206804171524E-6,0.001349456519049424
287,189.85298690633772,4.242839106521025E-6,0.001353699358155945
288,189.79657601655018,4.222633764057588E-6,0.0013579219919200027
289,189.7413112912798,4.168971780652851E-6,0.0013620909637006556
290,189.68638216635904,4.160820405040339E-6,0.001366251784105696
291,189.63131032888953,4.086818540971373E-6,0.0013703386026466672
292,189.5763085947567,4.0574557050381074E-6,0.0013743960583517054
293,189.5212990323654,4.088151892363734E-6,0.001378484210244069
294,189.4663301672729,4.049889216632843E-6,0.001382534099460702
295,189.41172308810985,4.111578601657315E-6,0.0013866456780623592
296,189.35664303271642,4.070200140531317E-6,0.0013907158782028905
297,189.30181813168662,4.093528418798009E-6,0.0013948094066216885
298,189.24747972278735,4.07664933758198E-6,0.0013988860559592704
299,189.19282981478895,4.101189006325566E-6,0.001402987244965596
300,189.13723383503253,4.116204965099308E-6,0.0014071034499306954
301,189.08063709759924,4.141217841531688E-6,0.0014112446677722271
302,189.02373418301238,4.185397340785395E-6,0.0014154300651130125
303,188.96792450426221,4.265383052631754E-6,0.0014196954481656443
304,188.91203318753682,4.260885703841372E-6,0.0014239563338694855
305,188.85660145628685,4.291805452144018E-6,0.0014282481393216296
306,188.8013170388424,4.286277033942481E-6,0.001432534416355572
307,188.74705556074142,4.2921273698392636E-6,0.0014368265437254113
308,188.69232490989836,4.251097551888675E-6,0.0014410776412773
