#t,ESS,tempDiff,temp
0,999.9999999999848,0.0,0.0
1,999.9904985710776,1.9221742769794636E-5,1.9221742769794636E-5
2,999.9624051218203,1.9141425455540277E-5,3.836316822533491E-5
3,999.916525628523,1.9050637018780853E-5,5.7413805244115766E-5
4,999.8527863224213,1.9137972305563763E-5,7.655177754967953E-5
5,999.7709630265998,1.9157966669401053E-5,9.570974421908058E-5
6,999.6725513519531,1.9066602808490553E-5,1.1477634702757114E-4
7,999.557771526984,1.907138985157297E-5,1.338477368791441E-4
8,999.425374546534,1.9087289652400544E-5,1.5293502653154466E-4
9,999.276574429365,1.9026713421495962E-5,1.7196173995304062E-4
10,999.1108044347046,1.9208551700262402E-5,1.9117029165330302E-4
11,998.9271963328633,1.914768138662326E-5,2.103179730399263E-4
12,998.7259845191832,1.9162989849230228E-5,2.2948096288915652E-4
13,998.5083685969156,1.90588391419264E-5,2.485398020310829E-4
14,998.2759609723654,1.9001810711229766E-5,2.6754161274231266E-4
15,998.0269545655887,1.8955943011888623E-5,2.8649755575420126E-4
16,997.7604862856676,1.8961550118512E-5,3.0545910587271327E-4
17,997.4768487735575,1.9001058446415774E-5,3.2446016431912904E-4
18,997.173623159586,1.9107567172654052E-5,3.435677314917831E-4
19,996.8516961398551,1.9190956303414282E-5,3.6275868779519734E-4
20,996.5135869914033,1.909223208231023E-5,3.818509198775076E-4
21,996.1556372353724,1.9171025195790925E-5,4.0102194507329853E-4
22,995.7836397479902,1.921612988215073E-5,4.2023807495544926E-4
23,995.3970950666989,1.9150636857188396E-5,4.3938871181263767E-4
24,994.9960822805947,1.9133519547120642E-5,4.5852223135975834E-4
25,994.5821891164627,1.902699650228581E-5,4.7754922786204414E-4
26,994.1513971175636,1.9031896230981323E-5,4.965811240930254E-4
27,993.7102035617177,1.8966618676632752E-5,5.155477427696582E-4
28,993.2515873897621,1.9003201839545976E-5,5.345509446092042E-4
29,992.7788681898339,1.893008663966285E-5,5.534810312488671E-4
30,992.290557032754,1.8989003516099545E-5,5.724700347649667E-4
31,991.7873963813611,1.8881040327474932E-5,5.913510750924416E-4
32,991.2619722956614,1.9087062339384843E-5,6.104381374318265E-4
33,990.7187657375349,1.9094032267411952E-5,6.295321696992384E-4
34,990.1583731885697,1.9187040075309273E-5,6.487192097745476E-4
35,989.5838277840146,1.9136100598871658E-5,6.678553103734193E-4
36,989.001958460362,1.8996399142019762E-5,6.868517095154391E-4
37,988.4001353020165,1.9133141869759394E-5,7.059848513851984E-4
38,987.787549825731,1.9112803703631136E-5,7.250976550888296E-4
39,987.1555475677033,1.9227094010900692E-5,7.443247490997303E-4
40,986.5057270679109,1.921734004844935E-5,7.635420891481796E-4
41,985.8479789282908,1.925107817453443E-5,7.82793167322714E-4
42,985.182014882463,1.919498502021097E-5,8.01988152342925E-4
43,984.4978637793986,1.9303725914652656E-5,8.212918782575776E-4
44,983.7999308632684,1.927544468567079E-5,8.405673229432484E-4
45,983.0830816245801,1.929067082097106E-5,8.598579937642195E-4
46,982.3500971189735,1.9360550271830893E-5,8.792185440360503E-4
47,981.6143515877279,1.926294730069174E-5,8.98481491336742E-4
48,980.8689255008303,1.9175056118401367E-5,9.176565474551434E-4
49,980.1000555190477,1.9281952438923323E-5,9.369384998940667E-4
50,979.3225512221977,1.9189353198809808E-5,9.561278530928765E-4
51,978.5356125454487,1.918192654560296E-5,9.753097796384795E-4
52,977.7318514933398,1.921232987517341E-5,9.94522109513653E-4
53,976.9192092463428,1.9297162544075074E-5,0.0010138192720577281
54,976.0924087649549,1.9320951324880754E-5,0.001033140223382609
55,975.2480803558656,1.9339179199611502E-5,0.0010524794025822204
56,974.386135928345,1.935795509520156E-5,0.001071837357677422
57,973.5093206524544,1.935226241473424E-5,0.0010911896200921562
58,972.6366450760798,1.9222902123555125E-5,0.0011104125222157113
59,971.7465466196219,1.9318721311574882E-5,0.0011297312435272861
60,970.843306542875,1.9423756528755972E-5,0.0011491550000560422
61,969.9236072115184,1.955620033654998E-5,0.0011687112003925923
62,968.9940635683549,1.948714973322348E-5,0.0011881983501258158
63,968.048553882959,1.952391322688835E-5,0.0012077222633527043
64,967.0936487895204,1.9396276188060996E-5,0.0012271185395407653
65,966.1272754287033,1.9442015396673328E-5,0.0012465605549374385
66,965.1508021476709,1.9415517146869198E-5,0.0012659760720843077
67,964.1655976187244,1.929359904680386E-5,0.0012852696711311115
68,963.1667087315973,1.9342455779062365E-5,0.001304612126910174
69,962.1475309110391,1.9472929288935465E-5,0.0013240850561991094
70,961.1196952722618,1.935463436844279E-5,0.0013434396905675522
71,960.0723316625324,1.941894500693709E-5,0.0013628586355744893
72,959.0215713012572,1.92833728395015E-5,0.0013821420084139907
73,957.9575927617414,1.9423331349517564E-5,0.0014015653397635084
74,956.8842134461376,1.9385010522169428E-5,0.0014209503502856779
75,955.806043926467,1.9424384216704146E-5,0.001440374734502382
76,954.7111608484026,1.9554180623813486E-5,0.0014599289151261954
77,953.6117553253416,1.942235101344435E-5,0.0014793512661396397
78,952.5017888317044,1.940737259269585E-5,0.0014987586387323355
79,951.3955617796778,1.9192426674775354E-5,0.0015179510654071107
80,950.2772352539845,1.9201537198776725E-5,0.0015371526026058875
81,949.1438210982685,1.9236083826383724E-5,0.0015563886864322712
82,948.002052950662,1.9123055044609495E-5,0.0015755117414768807
83,946.8602261335768,1.900896020490386E-5,0.0015945207016817846
84,945.7216742251222,1.8920082322244265E-5,0.0016134407840040289
85,944.5604943545422,1.9014531403388552E-5,0.0016324553154074173
86,943.3851833399243,1.905302044719791E-5,0.0016515083358546153
87,942.1986760413287,1.9102008219957536E-5,0.0016706103440745728
88,940.9953970141834,1.9232613814446883E-5,0.0016898429578890196
89,939.7678733502428,1.929295961531102E-5,0.0017091359175043306
90,938.5462026498316,1.9224364649864572E-5,0.0017283602821541952
91,937.3183552094968,1.9201239857142613E-5,0.0017475615220113377
92,936.10282846466,1.911969023241997E-5,0.0017666812122437577
93,934.8838286056372,1.9123340882757537E-5,0.0017858045531265153
94,933.6375305865565,1.8973772633702713E-5,0.001804778325760218
95,932.385787243075,1.879699867280613E-5,0.001823575324433024
96,931.1065265942543,1.8835114513606434E-5,0.0018424104389466306
97,929.8146343015544,1.8890021943940528E-5,0.0018613004608905711
98,928.5301103020593,1.884773958271692E-5,0.001880148200473288
99,927.23535425429,1.8883823452222986E-5,0.001899032023925511
100,925.938650110371,1.8795677877939205E-5,0.0019178277018034502
101,924.6433133335738,1.875536009027393E-5,0.001936583061893724
102,923.3421095421539,1.8687467980912485E-5,0.0019552705298746366
103,922.0220340363194,1.8719564439620577E-5,0.001973990094314257
104,920.6986288873975,1.8737460173532692E-5,0.0019927275544877896
105,919.3800706020982,1.8608260078229347E-5,0.0020113358145660187
106,918.0614961641098,1.8591979485290444E-5,0.002029927794051309
107,916.7418905734642,1.8654659447434753E-5,0.002048582453498744
108,915.4140230022039,1.8645907724062188E-5,0.002067228361222806
109,914.0636428327356,1.865030304676069E-5,0.0020858786642695666
110,912.7151358088502,1.8617654227321675E-5,0.002104496318496888
111,911.3755851111596,1.8570414554415308E-5,0.0021230667330513035
112,910.0442350732689,1.855033435445588E-5,0.0021416170674057595
113,908.703138537841,1.8504403845489386E-5,0.002160121471251249
114,907.3603857925874,1.8604134036132674E-5,0.0021787256052873817
115,906.011482951102,1.8618310844301596E-5,0.002197343916131683
116,904.6578379712732,1.8602557440844338E-5,0.0022159464735725274
117,903.2996137192669,1.856780203917177E-5,0.002234514275611699
118,901.9293864657469,1.8640759646137915E-5,0.002253155035257837
119,900.5437315641759,1.8739283414425146E-5,0.002271894318672262
120,899.1566899376887,1.8567528294960397E-5,0.0022904618469672226
121,897.7447845130309,1.871365028330102E-5,0.002309175497250524
122,896.3152599789804,1.878641617308305E-5,0.002327961913423607
123,894.890489452931,1.8757961922250454E-5,0.0023467198753458576
124,893.4530999812524,1.8681410834974733E-5,0.002365401286180832
125,891.991337319323,1.8775295768363688E-5,0.002384176581949196
126,890.5305724168568,1.864151041983892E-5,0.002402818092369035
127,889.0589175516866,1.8682776228999306E-5,0.0024215008685980343
128,887.5800892804431,1.8653914608376538E-5,0.0024401547832064107
129,886.1104871002273,1.861832203381899E-5,0.0024587731052402298
130,884.6259204481759,1.863380775191419E-5,0.002477406912992144
131,883.1150958030347,1.867973627758163E-5,0.0024960866492697254
132,881.5844641513141,1.877273109408006E-5,0.0025148593803638055
133,880.0682664796287,1.8794820198363146E-5,0.0025336542005621686
134,878.5478872484563,1.882158986792625E-5,0.002552475790430095
135,877.0353307641869,1.8757664898074305E-5,0.0025712334553281693
136,875.5193817057773,1.8766243821526848E-5,0.002589999699149696
137,873.9912473307458,1.8941576809761417E-5,0.0026089412759594576
138,872.45934796786,1.892729300363209E-5,0.0026278685689630895
139,870.9257501204089,1.8872683230665577E-5,0.0026467412521937552
140,869.3972891156923,1.8755043049512244E-5,0.0026654962952432676
141,867.8680753846561,1.8712155042553953E-5,0.0026842084502858216
142,866.337678335254,1.8735665162287517E-5,0.002702944115448109
143,864.7849429772538,1.8890948014146785E-5,0.002721835063462256
144,863.221629205567,1.906498659761244E-5,0.0027409000500598683
145,861.6776814210264,1.9140244292914744E-5,0.002760040294352783
146,860.1066044691338,1.9298638411396817E-5,0.00277933893276418
147,858.5426435446745,1.9231200820605567E-5,0.0027985701335847854
148,856.9564726727812,1.933335629328985E-5,0.0028179034898780752
149,855.363922143715,1.921045085679481E-5,0.0028371139407348703
150,853.7812888189789,1.9234795488181958E-5,0.002856348736223052
151,852.1897247814206,1.9273265637397153E-5,0.0028756220018604493
152,850.5862776416517,1.9235843694465604E-5,0.002894857845554915
153,849.0160678244325,1.918368655070611E-5,0.002914041532105621
154,847.4603103626055,1.905224869527753E-5,0.0029330937808008982
155,845.910625334064,1.9060490797451102E-5,0.0029521542715983495
156,844.3659769995023,1.909967818033499E-5,0.0029712539497786846
157,842.8007465406662,1.9210378651489345E-5,0.002990464328430174
158,841.2302122250686,1.9178141367558906E-5,0.003009642469797733
159,839.6326497752115,1.9155407041268806E-5,0.0030287978768390018
160,838.0536392933235,1.894650164031729E-5,0.003047744378479319
161,836.4739761903173,1.8811305371772092E-5,0.003066555683851091
162,834.8643411940277,1.8883747554402602E-5,0.0030854394314054935
163,833.2830227058689,1.868851426635577E-5,0.0031041279456718493
164,831.7269474682031,1.8579218027996014E-5,0.0031227071636998455
165,830.1735051802217,1.861776316320716E-5,0.0031413249268630525
166,828.6343353303005,1.8339602183050906E-5,0.0031596645290461033
167,827.0806410168047,1.841748409751836E-5,0.0031780820131436217
168,825.5322527462378,1.847631110895584E-5,0.0031965583242525774
169,824.0060716204265,1.8396861850465846E-5,0.0032149551861030434
170,822.496933462223,1.829122249279385E-5,0.0032332464085958372
171,820.9782368997486,1.825233138426054E-5,0.003251498739980098
172,819.4737513652043,1.827690544466775E-5,0.0032697756454247657
173,817.97432105539,1.8157240337481774E-5,0.0032879328857622473
174,816.4888055170157,1.8066603113802447E-5,0.00330599948887605
175,814.9936456183725,1.8145374639237184E-5,0.0033241448635152873
176,813.4987943839212,1.8029515466791043E-5,0.003342174378982078
177,812.0072352920286,1.802743007363E-5,0.003360201809055708
178,810.4997395201613,1.8160787465484254E-5,0.0033783625965211925
179,808.9686780740741,1.8188316346322167E-5,0.0033965509128675146
180,807.4373898826109,1.842439957299311E-5,0.0034149753124405077
181,805.8783228318612,1.8427128586403256E-5,0.003433402441026911
182,804.3065250507193,1.841822524373193E-5,0.003451820666270643
183,802.7360327667722,1.8294275521479182E-5,0.003470114941792122
184,801.1971316660228,1.826436539497257E-5,0.0034883793071870946
185,799.6588878169695,1.8364237532628304E-5,0.003506743544719723
186,798.1052884247915,1.848854433767971E-5,0.0035252320890574026
187,796.5508947038263,1.862486480241349E-5,0.003543856953859816
188,794.9539313821782,1.8746547225913854E-5,0.00356260350108573
189,793.3653440260849,1.86173393245676E-5,0.0035812208404102973
190,791.8006471092549,1.8610966633967422E-5,0.0035998318070442647
191,790.2407749753265,1.868497651045938E-5,0.003618516783554724
192,788.676320740696,1.8719841510660604E-5,0.0036372366250653847
193,787.12946845953,1.8640729545543664E-5,0.0036558773546109284
194,785.5984074693721,1.878940873397882E-5,0.0036746667633449073
195,784.0732620775055,1.87412080965229E-5,0.00369340797144143
196,782.5709316379688,1.8639910365817963E-5,0.003712047881807248
197,781.0348257286187,1.8611688209019868E-5,0.0037306595700162676
198,779.51671575393,1.8559415273417883E-5,0.0037492189852896853
199,778.0178942263358,1.8457110916095E-5,0.00376767609620578
200,776.5122452122381,1.8533954462794364E-5,0.0037862100506685743
201,775.0151660274938,1.840823633239328E-5,0.0038046182870009678
202,773.4866975861812,1.839335626875034E-5,0.003823011643269718
203,771.967076568393,1.8317353309371933E-5,0.0038413289965790903
204,770.4709877537996,1.8333340224611737E-5,0.003859662336803702
205,768.960697244121,1.842430995208077E-5,0.003878086646755783
206,767.4541692411746,1.8417413513382302E-5,0.003896504060269165
207,765.9772660484412,1.8339166981637544E-5,0.003914843227250803
208,764.4908676106577,1.8365316269902135E-5,0.003933208543520705
209,763.0084318202455,1.836002831006446E-5,0.003951568571830769
210,761.5264124213851,1.8345421803605415E-5,0.003969913993634375
211,760.0454094952681,1.817894081184646E-5,0.003988092934446221
212,758.5729457733903,1.799808177162335E-5,0.004006091016217845
213,757.0959313685593,1.8149311720249722E-5,0.004024240327938094
214,755.614101082088,1.8251622252731938E-5,0.004042491950190827
215,754.1479824349984,1.8262147255790226E-5,0.0040607540974466165
216,752.6545543725547,1.8522953842690823E-5,0.004079277051289307
217,751.1703666977666,1.849643374450964E-5,0.004097773485033817
218,749.7286335735974,1.8308449146650914E-5,0.004116081934180468
219,748.2979607742208,1.828380548625507E-5,0.004134365739666723
220,746.8816707773174,1.8386166777744308E-5,0.004152751906444467
221,745.4555437822567,1.8567587249241318E-5,0.004171319493693708
222,744.004098442386,1.8641643001514517E-5,0.004189961136695223
223,742.5277476779592,1.867452665983794E-5,0.004208635663355061
224,741.0542447524174,1.8646932286013814E-5,0.004227282595641074
225,739.5334097192382,1.8655893575091044E-5,0.004245938489216165
226,738.0194183534974,1.8687660593891176E-5,0.004264626149810056
227,736.5240696260349,1.8552984341965462E-5,0.004283179134152022
228,735.029722952329,1.8472796294812717E-5,0.004301651930446834
229,733.5256204038762,1.844912842210604E-5,0.00432010105886894
230,732.0279113853337,1.85765373201465E-5,0.004338677596189087
231,730.5160049565203,1.8559394695829435E-5,0.004357236990884916
232,729.0764205500598,1.8603997901305504E-5,0.004375840988786222
233,727.6246885948115,1.862408192975298E-5,0.004394465070715975
234,726.1802866714215,1.8476876802206646E-5,0.004412941947518181
235,724.7404063222194,1.8441350342376822E-5,0.004431383297860558
236,723.2812052560652,1.8483979618029655E-5,0.0044498672774785876
237,721.8161665121462,1.8287687422399033E-5,0.004468154964900987
238,720.3340117885655,1.8385705119841538E-5,0.0044865406700208285
239,718.8929526354036,1.836567000714959E-5,0.004504906340027978
240,717.4432770467553,1.8309158358594352E-5,0.004523215498386573
241,715.9706802680591,1.837100374763293E-5,0.004541586502134206
242,714.4983997796288,1.824972330694225E-5,0.004559836225441148
243,713.059411727153,1.814347652711309E-5,0.004577979701968261
244,711.6546915696939,1.804895136983332E-5,0.004596028653338094
245,710.2462079242644,1.8150517810992805E-5,0.004614179171149087
246,708.8425854954208,1.8127461801302633E-5,0.004632306632950389
247,707.4096987317781,1.8244974429721042E-5,0.00465055160738011
248,705.9879619124832,1.8149220415008946E-5,0.0046687008277951185
249,704.5115972951005,1.8191751579273117E-5,0.004686892579374392
250,703.0267257225513,1.819523092159035E-5,0.004705087810295982
251,701.527947429391,1.8349841761288785E-5,0.0047234376520572715
252,700.0253466719591,1.8379136488628374E-5,0.0047418167885459
253,698.5441889768916,1.8341788773457373E-5,0.004760158577319357
254,697.0586811806243,1.8463173854240936E-5,0.0047786217511735975
255,695.6428757699867,1.8430759810102674E-5,0.0047970525109837
256,694.2155977985119,1.84606827305062E-5,0.0048155131937142066
257,692.7943363699715,1.8352667557202035E-5,0.004833865861271409
258,691.4089060640133,1.820829641124911E-5,0.004852074157682658
259,690.0694454868192,1.807318742658592E-5,0.004870147345109244
260,688.6888880348131,1.812731173650221E-5,0.004888274656845746
261,687.31181606052,1.8102889951538093E-5,0.004906377546797284
262,685.9625023465919,1.8000685465567544E-5,0.004924378232262851
263,684.5942244336898,1.8157926065617734E-5,0.004942536158328469
264,683.2549911371207,1.8118245458695885E-5,0.004960654403787165
265,681.8924601321618,1.8209378446978997E-5,0.004978863782234145
266,680.5275210410592,1.8298109536515912E-5,0.004997161891770661
267,679.1735687769385,1.8240026358913402E-5,0.005015401918129574
268,677.7795846623436,1.810862291656857E-5,0.0050335105410461425
269,676.3841461073459,1.8197109629362743E-5,0.0050517076506755056
270,674.9776072269841,1.8196908671754312E-5,0.0050699045593472596
271,673.5722674377802,1.8153829484067547E-5,0.005088058388831327
272,672.1514260236886,1.8151668947370082E-5,0.005106210057778697
273,670.7081857200515,1.8124511620716717E-5,0.005124334569399413
274,669.2895917964019,1.8067072366315297E-5,0.005142401641765729
275,667.8028265444945,1.8141785477216847E-5,0.005160543427242945
276,666.3572881886281,1.8104705292057912E-5,0.005178648132535003
277,664.9353818506911,1.807025177428134E-5,0.005196718384309284
278,663.5324954024828,1.8019385435864365E-5,0.005214737769745148
279,662.102626856551,1.8020682896240797E-5,0.005232758452641389
280,660.6511157827397,1.815681783530861E-5,0.0052509152704766976
281,659.1903466112034,1.8245340154017724E-5,0.005269160610630715
282,657.7458917508667,1.827405209804169E-5,0.005287434662728757
283,656.272336786163,1.8226428788590895E-5,0.005305661091517348
284,654.8488225752501,1.8141865467458907E-5,0.005323802956984807
285,653.5018457438064,1.8069352444265788E-5,0.005341872309429073
286,652.13352667151,1.8102117241165002E-5,0.005359974426670237
287,650.7900030707058,1.7840004984183837E-5,0.005377814431654421
288,649.4446973461911,1.7956768337907216E-5,0.005395771199992329
289,648.0856531556935,1.792677457079381E-5,0.005413697974563122
290,646.7576888986507,1.7856878564417875E-5,0.00543155485312754
291,645.4392181743686,1.7957491686927516E-5,0.005449512344814467
292,644.1489579119432,1.7841806415608315E-5,0.005467354151230075
293,642.8651470124107,1.7869825196060373E-5,0.005485223976426135
294,641.5489682871371,1.7972517717204627E-5,0.00550319649414334
295,640.230547910006,1.7946242590640227E-5,0.00552114273673398
296,638.9322962793303,1.806371996954872E-5,0.005539206456703529
297,637.6366063157938,1.8165324385809768E-5,0.005557371781089338
298,636.3575252686494,1.8076602184094718E-5,0.005575448383273433
299,635.0265157844502,1.812046199793755E-5,0.00559356884527137
300,633.6731710601405,1.8316377450139817E-5,0.00561188522272151
301,632.3351301591674,1.8303722076358186E-5,0.005630188944797868
302,631.0053569519441,1.8364487986105885E-5,0.005648553432783974
303,629.696628333291,1.8224258538209583E-5,0.005666777691322184
304,628.3673355036962,1.8213278737146896E-5,0.005684990970059331
305,627.0363232708632,1.8104632301440066E-5,0.005703095602360771
306,625.7234239143979,1.8088788153082492E-5,0.005721184390513853
307,624.4721163118311,1.8082467277055744E-5,0.005739266857790908
308,623.2191558914354,1.800510061100215E-5,0.00575727195840191
309,621.9580248601212,1.805839268975799E-5,0.005775330351091668
