#t,ESS,tempDiff,temp
0,200.00000000000065,0.0,0.0
1,199.99983110848098,1.1667821314422031E-5,1.1667821314422031E-5
2,199.9993227520284,1.185546109812821E-5,2.352328241255024E-5
3,199.9984573673417,1.1832113927422581E-5,3.535539633997282E-5
4,199.99723652810735,1.1798280301732821E-5,4.715367664170564E-5
5,199.99562498879527,1.1875831536643333E-5,5.902950817834897E-5
6,199.99372248951858,1.1590776949069503E-5,7.062028512741847E-5
7,199.99148722167297,1.1656909260687674E-5,8.227719438810614E-5
8,199.98894205254516,1.1417269706791916E-5,9.369446409489805E-5
9,199.98613382226054,1.147895690258806E-5,1.0517342099748612E-4
10,199.9831430865317,1.112444943220695E-5,1.1629787042969307E-4
11,199.97980099357662,1.1414132441253625E-5,1.2771200287094668E-4
12,199.9761697400822,1.1597951402698222E-5,1.3930995427364492E-4
13,199.97207135130483,1.195227664090467E-5,1.512622309145496E-4
14,199.9677966472238,1.1637783037295114E-5,1.629000139518447E-4
15,199.96336858544217,1.1678717674383635E-5,1.7457873162622835E-4
16,199.95854835530147,1.178468428037894E-5,1.863634159066073E-4
17,199.95360557465318,1.1543430650886768E-5,1.9790684655749405E-4
18,199.94873414221698,1.1194222681653199E-5,2.0910106923914724E-4
19,199.94357030555298,1.1496320241013132E-5,2.2059738948016037E-4
20,199.93826371961046,1.1300222617500313E-5,2.3189761209766068E-4
21,199.93256576438307,1.1585478580986344E-5,2.4348309067864703E-4
22,199.92675041434183,1.1596644853485186E-5,2.5507973553213223E-4
23,199.9206407246599,1.158842709982305E-5,2.666681626319553E-4
24,199.91430487278566,1.1602448647887187E-5,2.7827061127984245E-4
25,199.90787651193517,1.1639390489887112E-5,2.8991000176972954E-4
26,199.90130896489129,1.1425532775371295E-5,3.0133553454510085E-4
27,199.89465534194008,1.1367567208878451E-5,3.127031017539793E-4
28,199.88767887416645,1.1423586443715204E-5,3.241266881976945E-4
29,199.88069319885187,1.1257279508255419E-5,3.3538396770594996E-4
30,199.87347943701857,1.1236758343185037E-5,3.46620726049135E-4
31,199.86625798397807,1.1279367356259224E-5,3.5790009340539423E-4
32,199.8588034607309,1.1376512132204003E-5,3.6927660553759823E-4
33,199.8513713493293,1.146094014735231E-5,3.8073754568495054E-4
34,199.8439483192516,1.134829141036797E-5,3.920858370953185E-4
35,199.8363157079718,1.1381662028652532E-5,4.03467499123971E-4
36,199.82852873755317,1.1238882128555077E-5,4.147063812525261E-4
37,199.82041032746633,1.1152062611713028E-5,4.2585844386423913E-4
38,199.81251183260395,1.0861832437463838E-5,4.3672027630170296E-4
39,199.80452175367387,1.0941123319232924E-5,4.4766139962093587E-4
40,199.79657457430847,1.1015970347924896E-5,4.586773699688608E-4
41,199.78860942162163,1.0862406412743174E-5,4.6953977638160396E-4
42,199.78059552463273,1.1244834882315628E-5,4.807846112639196E-4
43,199.77210341170988,1.157011344795093E-5,4.923547247118706E-4
44,199.76376069485116,1.1579205090322633E-5,5.039339298021932E-4
45,199.75548848861797,1.1492993028199982E-5,5.154269228303932E-4
46,199.74705583395541,1.1724028042133258E-5,5.271509508725264E-4
47,199.73835533346218,1.2021963255121477E-5,5.391729141276479E-4
48,199.72962133054565,1.1918025699597473E-5,5.510909398272454E-4
49,199.72061595427695,1.215204214462141E-5,5.632429819718668E-4
50,199.71147460683267,1.1996761035849573E-5,5.752397430077164E-4
51,199.70208536883274,1.2066702843391977E-5,5.873064458511084E-4
52,199.69209868994423,1.19455773100803E-5,5.992520231611888E-4
53,199.68213831401252,1.2054975007859023E-5,6.113069981690478E-4
54,199.6718276667911,1.2265056615235439E-5,6.235720547842832E-4
55,199.66146303620326,1.2227263060603863E-5,6.357993178448871E-4
56,199.65097970998124,1.2029923455398564E-5,6.478292413002857E-4
57,199.6404993358413,1.1791788265366042E-5,6.596210295656517E-4
58,199.6293985471167,1.1787918457012726E-5,6.714089480226644E-4
59,199.61784409985697,1.1801368743270006E-5,6.832103167659344E-4
60,199.60641624428374,1.1779487053317057E-5,6.949898038192514E-4
61,199.59497316754923,1.1666914400446567E-5,7.06656718219698E-4
62,199.5831865039795,1.1406622026873713E-5,7.180633402465717E-4
63,199.57075173642824,1.1260539928823941E-5,7.293238801753956E-4
64,199.55837536596596,1.139455616369978E-5,7.407184363390954E-4
65,199.5460581910587,1.1305805716305467E-5,7.520242420554009E-4
66,199.53378128943277,1.1141868872894481E-5,7.631661109282954E-4
67,199.5209661866,1.1317921921230448E-5,7.744840328495259E-4
68,199.50827901999662,1.1225017514721019E-5,7.85709050364247E-4
69,199.495287662742,1.1292346068121315E-5,7.970013964323683E-4
70,199.48184746879565,1.1426987192144103E-5,8.084283836245124E-4
71,199.46861146484736,1.1252912542642186E-5,8.196812961671545E-4
72,199.45525948101357,1.1193850007764856E-5,8.308751461749194E-4
73,199.4411941208368,1.1393248903499903E-5,8.422683950784193E-4
74,199.42704607954516,1.1474871311877323E-5,8.537432663902966E-4
75,199.41274330319527,1.1290387552063817E-5,8.650336539423604E-4
76,199.3976065331305,1.1454502500664864E-5,8.764881564430252E-4
77,199.38252039276375,1.1230686137206248E-5,8.877188425802315E-4
78,199.36769132963147,1.1272203012196812E-5,8.989910455924283E-4
79,199.35237383662627,1.1438883709503958E-5,9.104299293019322E-4
80,199.33733347347263,1.1260853581567711E-5,9.216907828835E-4
81,199.32231762528943,1.1181817877138423E-5,9.328726007606383E-4
82,199.30660709935736,1.149531780457997E-5,9.443679185652183E-4
83,199.29059642633305,1.1473662786550654E-5,9.55841581351769E-4
84,199.2741628217807,1.1584934519764813E-5,9.674265158715338E-4
85,199.25791142857966,1.1299716070005501E-5,9.787262319415394E-4
86,199.24187164645625,1.1265720526515418E-5,9.89991952468055E-4
87,199.22598243715728,1.117964318708406E-5,0.001001171595655139
88,199.2098196811119,1.121858791463347E-5,0.0010123901835697726
89,199.19333613250296,1.1727965585218842E-5,0.0010241181491549914
90,199.17719405236906,1.16156424319296E-5,0.001035733791586921
91,199.16102456023285,1.1566335726667636E-5,0.0010473001273135886
92,199.14472699394116,1.141075360839268E-5,0.0010587108809219812
93,199.1285439299789,1.1186917968355329E-5,0.0010698977988903365
94,199.11256847838365,1.128336213677362E-5,0.0010811811610271101
95,199.0964693497949,1.1276396129977174E-5,0.0010924575571570872
96,199.08022366418973,1.139183173284702E-5,0.0011038493888899342
97,199.06443890353214,1.1117084681618753E-5,0.0011149664735715529
98,199.04862411184996,1.1071860145942092E-5,0.001126038333717495
99,199.03249753961964,1.0935163267222263E-5,0.0011369734969847174
100,199.0162122826646,1.1098985376631266E-5,0.0011480724823613485
101,198.9993813011094,1.1133890752784389E-5,0.001159206373114133
102,198.9828093876342,1.1103218425949542E-5,0.0011703095915400826
103,198.96651800604715,1.1002199277401246E-5,0.0011813117908174838
104,198.94987225639272,1.0943196211498833E-5,0.0011922549870289826
105,198.93300020108384,1.1017264047603252E-5,0.001203272251076586
106,198.91514663818396,1.0966079494927254E-5,0.0012142383305715132
107,198.89675781357874,1.0961466647735218E-5,0.0012251997972192485
108,198.8778219350369,1.101725888194817E-5,0.0012362170561011966
109,198.8590704268956,1.1064040329711902E-5,0.0012472810964309084
110,198.84011915406813,1.1109345756012805E-5,0.0012583904421869213
111,198.82149450436498,1.1254377473687344E-5,0.0012696448196606086
112,198.8026166269103,1.1287043412172007E-5,0.0012809318630727807
113,198.7841135689277,1.0995870501053616E-5,0.0012919277335738343
114,198.765548784404,1.113307997996813E-5,0.0013030608135538024
115,198.74697706672504,1.1316681320305706E-5,0.001314377494874108
116,198.72849827756434,1.1386570167630656E-5,0.0013257640650417388
117,198.70963717579662,1.1358212003320659E-5,0.0013371222770450595
118,198.691177627995,1.1441464098464524E-5,0.001348563741143524
119,198.67232733250324,1.1420839713394085E-5,0.0013599845808569182
120,198.65391695768164,1.1396802573906956E-5,0.0013713813834308251
121,198.63553313997622,1.1227879012415608E-5,0.0013826092624432407
122,198.61679571971774,1.118957208297661E-5,0.0013937988345262174
123,198.5978165093768,1.116069877270751E-5,0.0014049595332989249
124,198.5789295626649,1.1201969486852204E-5,0.0014161615027857772
125,198.55996690765693,1.1345941775637502E-5,0.0014275074445614148
126,198.5403814516017,1.1562088454119814E-5,0.0014390695330155346
127,198.5219108887444,1.1536122648750235E-5,0.0014506056556642848
128,198.50303430581485,1.1726908218984707E-5,0.0014623325638832695
129,198.48364017108617,1.186905663634765E-5,0.001474201620519617
130,198.46350630313165,1.1926181721433514E-5,0.0014861278022410506
131,198.44354817574356,1.1677444888720246E-5,0.001497805247129771
132,198.4238642193684,1.1875465956786756E-5,0.0015096807130865577
133,198.4043608320358,1.180044994023133E-5,0.001521481163026789
134,198.3846349832172,1.1709098086121615E-5,0.0015331902611129106
135,198.3651453515416,1.1368969520738208E-5,0.001544559230633649
136,198.34466052284853,1.1105629060572097E-5,0.001555664859694221
137,198.32471127081524,1.1013543978172106E-5,0.001566678403672393
138,198.3044832298921,1.1073126382633383E-5,0.0015777515300550264
139,198.28483718717635,1.086576424971022E-5,0.0015886172943047367
140,198.26515081753428,1.0965197280770366E-5,0.0015995824915855071
141,198.24621242702418,1.080970415475492E-5,0.001610392195740262
142,198.22823086001532,1.0527348001062833E-5,0.001620919543741325
143,198.2093783965796,1.0626103736703033E-5,0.0016315456474780279
144,198.19072272332332,1.0522958400000465E-5,0.0016420686058780283
145,198.17228898362427,1.049396644660293E-5,0.0016525625723246313
146,198.15455926533377,1.0386530052158654E-5,0.00166294910237679
147,198.1371056686527,1.0367202293093637E-5,0.0016733163046698835
148,198.1200199270796,1.0213993261641984E-5,0.0016835302979315255
149,198.10357551897619,1.0053116369123507E-5,0.001693583414300649
150,198.0871904011631,1.0031776106214103E-5,0.0017036151904068631
151,198.07166372006094,9.984608576337197E-6,0.0017135997989832002
152,198.05624869570343,9.884126184077553E-6,0.001723483925167278
153,198.04115601058325,9.611302193223134E-6,0.0017330952273605011
154,198.02559805704564,9.752396761916338E-6,0.0017428476241224174
155,198.01047113465822,9.676315172017132E-6,0.0017525239392944345
156,197.99426357903664,9.739992552496274E-6,0.0017622639318469308
157,197.97778544094513,9.889063944142415E-6,0.0017721529957910732
158,197.96114251738115,9.9920341471437E-6,0.001782145029938217
159,197.94493726250886,1.000426888235459E-5,0.0017921492988205716
160,197.92819253474175,1.013430900106687E-5,0.0018022836078216385
161,197.91158438107897,9.967563866510356E-6,0.001812251171688149
162,197.8948831645246,9.89109402416452E-6,0.0018221422657123134
163,197.8783245756511,9.98328150648477E-6,0.0018321255472187983
164,197.8617257968331,1.0039638717020268E-5,0.0018421651859358186
165,197.84440339716295,1.01634201775202E-5,0.0018523286061133389
166,197.82724029410352,9.87720688631057E-6,0.0018622058129996494
167,197.80987159788842,9.919751222982618E-6,0.001872125564222632
168,197.79182395972504,9.887965724117518E-6,0.0018820135299467495
169,197.7739902677734,9.833892205890173E-6,0.0018918474221526398
170,197.75657915327145,9.911050169552163E-6,0.001901758472322192
171,197.73927589756627,1.0002592701589251E-5,0.0019117610650237812
172,197.7217354404255,9.850911353053572E-6,0.0019216119763768348
173,197.7043199405369,9.770354934368908E-6,0.0019313823313112037
174,197.68681809355616,9.647436188643574E-6,0.0019410297674998472
175,197.66916632188574,9.573552096003303E-6,0.0019506033195958506
176,197.6501440506619,9.849903808342695E-6,0.001960453223404193
177,197.63055613327884,9.888567312625633E-6,0.001970341790716819
178,197.61041534007867,9.870619943038423E-6,0.001980212410659857
179,197.58921174083696,1.0009858471096742E-5,0.001990222269130954
180,197.5685665907724,9.91041423025815E-6,0.002000132683361212
181,197.54738507336694,9.826628020864932E-6,0.002009959311382077
182,197.5256466008867,9.720114676725501E-6,0.0020196794260588027
183,197.50378538648638,9.939380280008122E-6,0.002029618806338811
184,197.48252731921818,9.847280527842713E-6,0.0020394660868666534
185,197.4614596165981,9.53705578900243E-6,0.0020490031426556557
186,197.4405106016586,9.55570671248491E-6,0.0020585588493681408
187,197.4194425040223,9.483117729916636E-6,0.0020680419670980575
188,197.39835337198087,9.46516057806456E-6,0.002077507127676122
189,197.3776202559907,9.458218224821688E-6,0.002086965345900944
190,197.35677780964946,9.45262000804479E-6,0.002096417965908989
191,197.3357783163282,9.506949035777924E-6,0.0021059249149447666
192,197.31492591308972,9.47143186532452E-6,0.002115396346810091
193,197.2941586920603,9.546623842419344E-6,0.00212494297065251
194,197.2712582331943,9.681665691897213E-6,0.002134624636344407
195,197.24843173624532,9.673149144365522E-6,0.002144297785488773
196,197.22573682776166,9.834728975945879E-6,0.0021541325144647187
197,197.2022485252418,9.966216035532792E-6,0.0021640987305002516
198,197.17906605144344,9.98372848574469E-6,0.0021740824589859963
199,197.15612773206598,9.945281692366585E-6,0.0021840277406783627
200,197.13335647156458,1.0238340522861552E-5,0.0021942660812012244
201,197.10958938566566,1.0261091148516486E-5,0.0022045271723497408
202,197.08648935767633,1.0249048746036661E-5,0.0022147762210957774
203,197.06236968497274,1.0266801846313834E-5,0.0022250430229420913
204,197.036998148926,1.0420353485332687E-5,0.002235463376427424
205,197.01023098717891,1.0521454432299728E-5,0.002245984830859724
206,196.98273729437136,1.0508788114154417E-5,0.0022564936189738783
207,196.9549863765217,1.0617612812511089E-5,0.002267111231786389
208,196.92759366858309,1.0629487061442737E-5,0.002277740718847832
209,196.89982192500912,1.0547314218822806E-5,0.0022882880330666548
210,196.87117186596134,1.0614217944816276E-5,0.002298902251011471
211,196.8419177866913,1.051119545203935E-5,0.0023094134464635104
212,196.8120308981822,1.0572712683537625E-5,0.002319986159147048
213,196.78302147337138,1.0210415924053756E-5,0.002330196575071102
214,196.75382017758153,1.0255218798415495E-5,0.0023404517938695173
215,196.724351356179,1.0404165760425968E-5,0.0023508559596299434
216,196.69578676834428,1.0399729133846055E-5,0.0023612556887637895
217,196.66584390783368,1.0523707218708242E-5,0.0023717793959824977
218,196.63472147897957,1.0685621790302642E-5,0.0023824650177728004
219,196.60476712205124,1.079863824472573E-5,0.002393263656017526
220,196.57471212584255,1.0710136184631683E-5,0.002403973792202158
221,196.54469605109884,1.0752637039645478E-5,0.0024147264292418034
222,196.51466445427104,1.0669343940238758E-5,0.002425395773182042
223,196.48542736514983,1.0516318292269246E-5,0.0024359120914743113
224,196.4569810612367,1.0252900638955558E-5,0.0024461649921132668
225,196.43052953356533,1.0022190418103426E-5,0.00245618718253137
226,196.40428484358856,1.0058355691972072E-5,0.0024662455382233424
227,196.37800896870507,1.0063663220608044E-5,0.0024763092014439504
228,196.35076620532013,1.018833768095684E-5,0.0024864975391249073
229,196.32448063939765,9.969051339072E-6,0.0024964665904639795
230,196.29825716765149,1.010071846813803E-5,0.0025065673089321176
231,196.27132270630673,1.0319634468007193E-5,0.002516886943400125
232,196.2432090753775,1.0590290967155885E-5,0.0025274772343672806
233,196.21501574622096,1.0589666294251006E-5,0.0025380669006615317
234,196.18667121491038,1.0372833099510063E-5,0.002548439733761042
235,196.15846283584042,1.0246158122799818E-5,0.0025586858918838417
236,196.12996040341403,1.0256844070988297E-5,0.00256894273595483
237,196.10075152014605,1.0373652065014275E-5,0.002579316388019844
238,196.07229745918545,1.0344668099745487E-5,0.0025896610561195895
239,196.044352185339,1.0249477582770499E-5,0.00259991053370236
240,196.01476777895482,1.0335021289985112E-5,0.0026102455549923452
241,195.98485040333813,1.0192939847173702E-5,0.002620438494839519
242,195.9548770131691,1.0527050736797374E-5,0.002630965545576316
243,195.9257911863847,1.0195421099219664E-5,0.0026411609666755357
244,195.89574027257692,1.0183769296878337E-5,0.002651344735972414
245,195.8650767613396,1.028755514800538E-5,0.0026616322911204196
246,195.83296472598104,1.0375461022774316E-5,0.0026720077521431938
247,195.8006972715751,1.0535889350384462E-5,0.002682543641493578
248,195.76888908310465,1.0509067247707166E-5,0.0026930527087412853
249,195.7372308891231,1.0574928977671565E-5,0.0027036276377189567
250,195.70502782426246,1.0660164132633418E-5,0.00271428780185159
251,195.67301239453698,1.072705746986467E-5,0.0027250148593214547
252,195.64038044877006,1.074955459381734E-5,0.002735764413915272
253,195.60778833188712,1.0785024708890047E-5,0.002746549438624162
254,195.5744103534981,1.0988245837505616E-5,0.002757537684461668
255,195.54172270131798,1.1107184995187946E-5,0.0027686448694568557
256,195.5099008104715,1.0811836259280962E-5,0.0027794567057161366
257,195.47872137510248,1.0664029970586419E-5,0.002790120735686723
258,195.4465495820704,1.0704888036830873E-5,0.002800825623723554
259,195.4148392068572,1.051593181720896E-5,0.002811341555540763
260,195.38351417593128,1.0483992629834807E-5,0.0028218255481705975
261,195.3530961030221,1.0351556188324214E-5,0.0028321771043589216
262,195.32279132677144,1.0320757422554189E-5,0.002842497861781476
263,195.29356226179618,1.0213703384162594E-5,0.0028527115651656386
264,195.2649510383698,1.0242142082931527E-5,0.00286295370724857
265,195.23677294047195,1.0114142305151007E-5,0.002873067849553721
266,195.20842408279816,1.0106367479707213E-5,0.002883174217033428
267,195.17980952578503,1.0120357363295981E-5,0.002893294574396724
268,195.1508944339761,1.009435753881142E-5,0.0029033889319355355
269,195.1213361706018,1.0116113821168288E-5,0.002913505045756704
270,195.09056301503549,9.984721230644407E-6,0.0029234897669873482
271,195.05990751353477,1.0098204509436557E-5,0.0029335879714967846
272,195.02847940118548,1.0231212123501755E-5,0.0029438191836202864
273,194.997081501873,1.030459577020784E-5,0.0029541237793904943
274,194.96541231848465,1.0392183901840047E-5,0.0029645159632923344
275,194.93338456943556,1.0561513584372212E-5,0.0029750774768767065
276,194.90009485461758,1.043593178470566E-5,0.0029855134086614124
277,194.86739235915485,1.0461362806197874E-5,0.0029959747714676105
278,194.83539127436978,1.048286904249834E-5,0.0030064576405101086
279,194.80139517882472,1.040805125626939E-5,0.003016865691766378
280,194.76795363189703,1.0359368522434853E-5,0.003027225060288813
281,194.73365441247975,1.0453613514401366E-5,0.0030376786738032144
282,194.69952776568178,1.0228930371092165E-5,0.003047907604174307
283,194.66578737015118,1.0227682518256893E-5,0.003058135286692564
284,194.63086512511123,1.0455734243041986E-5,0.003068591020935606
285,194.5965460158635,1.028606673060826E-5,0.0030788770876662144
286,194.5614818588516,1.046736388136493E-5,0.0030893444515475792
287,194.52578303928482,1.051983029921634E-5,0.0030998642818467954
288,194.48893020233044,1.0625244648883496E-5,0.003110489526495679
289,194.45194956597243,1.087520839527694E-5,0.0031213647348909556
290,194.415693583257,1.0797273773105326E-5,0.0031321620086640608
291,194.37787096347188,1.0817230779499763E-5,0.0031429792394435606
292,194.33918346146086,1.114562416307111E-5,0.003154124863606632
293,194.30038552087947,1.1334587560395654E-5,0.0031654594511670276
294,194.26096866682747,1.131942768276672E-5,0.0031767788788497945
295,194.21878132998603,1.1789236628645875E-5,0.0031885681154784403
296,194.1757991352768,1.1765865670032283E-5,0.0032003339811484724
297,194.13426248265668,1.1564932486770959E-5,0.0032118989136352433
298,194.0910044393852,1.174442984237546E-5,0.0032236433434776187
299,194.0474679842803,1.1737098083607264E-5,0.003235380441561226
300,194.00249147140508,1.1958988315897586E-5,0.0032473394298771236
301,193.95907354501188,1.192288872180451E-5,0.0032592623185989282
302,193.9141239332609,1.1951088287280818E-5,0.003271213406886209
303,193.86965857713125,1.1936816976612865E-5,0.003283150223862822
304,193.82803833106345,1.1736431535212235E-5,0.003294886655398034
305,193.78716055477514,1.148994033312876E-5,0.0033063765957311625
