#t,ESS,tempDiff,temp
0,200.00000000000065,0.0,0.0
1,199.9997999999996,1.9789492444433213E-5,1.9789492444433213E-5
2,199.9992199827144,1.912856916775311E-5,3.891806161218632E-5
3,199.9982713643317,1.9288266466377987E-5,5.820632807856431E-5
4,199.99696388811492,1.8290242755317942E-5,7.649657083388225E-5
5,199.99531465212394,1.832270202406621E-5,9.481927285794845E-5
6,199.99338010671184,1.8250007824693797E-5,1.1306928068264225E-4
7,199.99114597194904,1.797749405859589E-5,1.3104677474123813E-4
8,199.9885205785448,1.7268260738057787E-5,1.4831503547929593E-4
9,199.9856799083885,1.724660142793351E-5,1.6556163690722943E-4
10,199.98249990861743,1.7150442724540588E-5,1.8271207963177E-4
11,199.97901458978106,1.707138038255432E-5,1.9978346001432433E-4
12,199.97524960812993,1.737595523192398E-5,2.171594152462483E-4
13,199.97110888584362,1.7062226053905165E-5,2.3422164130015348E-4
14,199.96668557740597,1.7225399157242515E-5,2.5144704045739597E-4
15,199.96205067871668,1.7073117249259703E-5,2.685201577066557E-4
16,199.95718506647856,1.7336314135573248E-5,2.8585647184222894E-4
17,199.95208332671115,1.6778568138009624E-5,3.0263503998023857E-4
18,199.94675415711038,1.682686940028533E-5,3.194619093805239E-4
19,199.94123394158203,1.7152352000517975E-5,3.3661426138104186E-4
20,199.9353649924541,1.7021532229644243E-5,3.536357936106861E-4
21,199.929380650418,1.7402563531643523E-5,3.710383571423296E-4
22,199.92304426583655,1.740364918469664E-5,3.8844200632702627E-4
23,199.9164729707482,1.749432243422284E-5,4.059363287612491E-4
24,199.90977766202275,1.7104810549383106E-5,4.230411393106322E-4
25,199.9027758630772,1.6978100948687613E-5,4.400192402593198E-4
26,199.89581193211495,1.7155303453021162E-5,4.5717454371234096E-4
27,199.88865038883,1.7471943214317536E-5,4.746464869266585E-4
28,199.88146673869795,1.7055708476495063E-5,4.917021954031536E-4
29,199.8739397667267,1.7424935820171847E-5,5.091271312233255E-4
30,199.86629082545554,1.7587295939914626E-5,5.267144271632401E-4
31,199.8585288253861,1.7969812325466333E-5,5.446842394887064E-4
32,199.85049971461055,1.737392185989468E-5,5.62058161348601E-4
33,199.84236151416408,1.6770461032684167E-5,5.788286223812852E-4
34,199.8340262477406,1.69624108121248E-5,5.9579103319341E-4
35,199.82559415231503,1.6780347174335963E-5,6.125713803677459E-4
36,199.8170775522111,1.6363552057053414E-5,6.289349324247993E-4
37,199.80818224498904,1.6459316771401125E-5,6.453942491962004E-4
38,199.79926173091272,1.6627139878658652E-5,6.620213890748591E-4
39,199.79047949799138,1.660987787419827E-5,6.786312669490573E-4
40,199.78153289502495,1.6350993929646124E-5,6.949822608787034E-4
41,199.7723444687723,1.695101109524471E-5,7.119332719739481E-4
42,199.76294919860268,1.6812103232694746E-5,7.287453752066429E-4
43,199.75298437522545,1.694645009166315E-5,7.456918252983061E-4
44,199.7433374360149,1.72194335400753E-5,7.629112588383814E-4
45,199.73321586190698,1.695643444228739E-5,7.798676932806688E-4
46,199.72271654620505,1.6823294569716335E-5,7.966909878503851E-4
47,199.71208822056838,1.7482815169697473E-5,8.141738030200826E-4
48,199.70147594740953,1.7587248225501612E-5,8.317610512455841E-4
49,199.69085998272,1.779634091198878E-5,8.495573921575729E-4
50,199.68002751391663,1.7382552021957185E-5,8.669399441795301E-4
51,199.6697019624472,1.714801170567574E-5,8.840879558852058E-4
52,199.6590431314064,1.6834644853521064E-5,9.009226007387268E-4
53,199.64811908389623,1.703500109938869E-5,9.179576018381155E-4
54,199.63682114162586,1.7710831011891145E-5,9.356684328500067E-4
55,199.62525948506698,1.743133580571283E-5,9.530997686557195E-4
56,199.61360772198577,1.753653443806944E-5,9.706363030937889E-4
57,199.60210790987148,1.7996826463917548E-5,9.886331295577064E-4
58,199.5903478430844,1.7639293397665096E-5,0.0010062724229553716
59,199.5788364243345,1.785786834378438E-5,0.0010241302912991559
60,199.56750000359602,1.7679157479168467E-5,0.0010418094487783243
61,199.556724690928,1.7560722233458556E-5,0.0010593701710117829
62,199.54519791356967,1.7074964300580727E-5,0.0010764451353123636
63,199.53314509939193,1.776804993141142E-5,0.001094213185243775
64,199.52114399658257,1.7272918266317504E-5,0.0011114861035100925
65,199.50903068083613,1.676041945676026E-5,0.0011282465229668528
66,199.4964105183294,1.64162802644223E-5,0.0011446628032312752
67,199.4841885243289,1.679319528298332E-5,0.0011614559985142585
68,199.4715075564459,1.671402275936527E-5,0.0011781700212736238
69,199.45909607470503,1.6349624619349643E-5,0.0011945196458929734
70,199.4465146604282,1.641463279055801E-5,0.0012109342786835314
71,199.4338902073162,1.6707679907438026E-5,0.0012276419585909694
72,199.42125159225114,1.6421103657573364E-5,0.0012440630622485428
73,199.40811326305334,1.6420937953332538E-5,0.0012604840002018753
74,199.3947526704293,1.6522204316967345E-5,0.0012770062045188426
75,199.3812685299223,1.632768356740049E-5,0.001293333888086243
76,199.36778450032162,1.632493964011464E-5,0.0013096588277263577
77,199.35472387797236,1.6187688231710218E-5,0.001325846515958068
78,199.3420202295625,1.6703136935359606E-5,0.0013425496528934276
79,199.32854372044105,1.6600876937919745E-5,0.0013591505298313474
80,199.31536345192941,1.679180824410566E-5,0.001375942338075453
81,199.30295394864606,1.7314972685648088E-5,0.001393257310761101
82,199.2904560528114,1.702596326871008E-5,0.0014102832740298112
83,199.2779709645012,1.69767121894079E-5,0.001427259986219219
84,199.2651916492379,1.690549763701219E-5,0.0014441654838562312
85,199.2521301038466,1.6708770478048268E-5,0.0014608742543342794
86,199.23868660830496,1.688382080573388E-5,0.0014777580751400132
87,199.22525037098606,1.707277168527846E-5,0.0014948308468252917
88,199.2116350701207,1.719253972636592E-5,0.0015120233865516576
89,199.19813433401552,1.7079033238604886E-5,0.0015291024197902625
90,199.18507271079457,1.69581529375321E-5,0.0015460605727277946
91,199.17181792617,1.639296510292202E-5,0.0015624535378307167
92,199.1590055452941,1.6376841010250702E-5,0.0015788303788409673
93,199.1456996050753,1.6495498537684212E-5,0.0015953258773786516
94,199.1336372619247,1.6747381717618303E-5,0.00161207325909627
95,199.12175455296403,1.645901979949162E-5,0.0016285322788957615
96,199.1098380426038,1.6258700770897395E-5,0.001644790979666659
97,199.0979524902838,1.6435548897572357E-5,0.0016612265285642313
98,199.08566993050871,1.6547759065783207E-5,0.0016777742876300144
99,199.07259224598212,1.608389225847853E-5,0.001693858179888493
100,199.05990835053393,1.5891907415140133E-5,0.001709750087303633
101,199.04681882349837,1.6050782874808882E-5,0.0017258008701784419
102,199.03336717064664,1.6050909146459925E-5,0.001741851779324902
103,199.01984315239073,1.6541011552156634E-5,0.0017583927908770586
104,199.0064825546104,1.693699694390488E-5,0.0017753297878209636
105,198.994176648226,1.6649347018203987E-5,0.0017919791348391676
106,198.98138509062792,1.671432535103371E-5,0.0018086934601902014
107,198.9684209869849,1.6760379060902603E-5,0.001825453839251104
108,198.95555657164877,1.6705433790419597E-5,0.0018421592730415237
109,198.94300882633812,1.6971213896033763E-5,0.0018591304869375576
110,198.92982948296802,1.717129814453435E-5,0.001876301785082092
111,198.91682778253144,1.723074138581078E-5,0.0018935325264679028
112,198.9042873867895,1.6587102977488616E-5,0.0019101196294453915
113,198.89176658592316,1.6358631166197342E-5,0.0019264782606115889
114,198.87981793771925,1.6261755345918224E-5,0.0019427400159575071
115,198.8668212309198,1.5821924175551784E-5,0.001958561940133059
116,198.8535857703102,1.536768587782978E-5,0.0019739296260108887
117,198.8409215949963,1.5446494478128095E-5,0.001989376120489017
118,198.82761821087269,1.5757550152501333E-5,0.002005133670641518
119,198.81414922843877,1.5725501036213027E-5,0.0020208591716777313
120,198.79947845601666,1.5451977747518876E-5,0.0020363111494252502
121,198.78349064291166,1.5712313996426165E-5,0.0020520234634216765
122,198.76789247585333,1.5959993127292197E-5,0.0020679834565489686
123,198.7520481984475,1.6272476476061686E-5,0.00208425593302503
124,198.7367573803339,1.6220853614330104E-5,0.0021004767866393604
125,198.72185186642062,1.6383567126183992E-5,0.0021168603537655446
126,198.70616494153091,1.6060745076187663E-5,0.0021329210988417324
127,198.69090606160162,1.634620838198333E-5,0.002149267307223716
128,198.67491607723932,1.612144206629475E-5,0.0021653887492900105
129,198.658684114806,1.6477156071884083E-5,0.0021818659053618947
130,198.64220994695424,1.6123262234802376E-5,0.002197989167596697
131,198.62616849541845,1.6018746953326734E-5,0.002214007914550024
132,198.61023925563472,1.617533990380083E-5,0.0022301832544538245
133,198.594355507871,1.6281436486796873E-5,0.0022464646909406212
134,198.57829095754656,1.6649938997026455E-5,0.0022631146299376477
135,198.5615443759007,1.6484671219564244E-5,0.002279599301157212
136,198.54483484219116,1.6464783034268546E-5,0.00229606408419148
137,198.52809166346657,1.6489610786231912E-5,0.0023125536949777123
138,198.51122952934628,1.639333571632594E-5,0.002328947030694038
139,198.49518980875933,1.683926151377686E-5,0.002345786292207815
140,198.47906240308174,1.6298593134666093E-5,0.002362084885342481
141,198.46252407675857,1.6417116389847378E-5,0.0023785020017323285
142,198.44644075211676,1.724602680287744E-5,0.002395748028535206
143,198.43083109366628,1.723912803487319E-5,0.002412987156570079
144,198.41555428811037,1.671581774566975E-5,0.002429702974315749
145,198.39994161214804,1.6511262303496986E-5,0.002446214236619246
146,198.3838661653655,1.7047453572889142E-5,0.002463261690192135
147,198.36731658159368,1.6665664362924246E-5,0.002479927354555059
148,198.35102321363587,1.6864202361451163E-5,0.0024967915569165102
149,198.3344595476138,1.669571436727337E-5,0.0025134872712837836
150,198.31751634696317,1.6413642263136057E-5,0.00252990091354692
151,198.30005247167654,1.6359566159204622E-5,0.0025462604797061245
152,198.28143271379116,1.6666437778526916E-5,0.0025629269174846513
153,198.26341994895668,1.6595102442020073E-5,0.0025795220199266713
154,198.24551401075556,1.6181452613436086E-5,0.0025957034725401073
155,198.2266110625306,1.599071386614747E-5,0.002611694186406255
156,198.20763617993774,1.6546041409479958E-5,0.002628240227815735
157,198.18796715315005,1.6963159371587867E-5,0.002645203387187323
158,198.16792315430644,1.7180286055203845E-5,0.0026623836732425268
159,198.147709503553,1.705412670958914E-5,0.002679437799952116
160,198.1269402189402,1.7072265807656856E-5,0.002696510065759773
161,198.10634540618557,1.6685325337701973E-5,0.002713195391097475
162,198.08503908872535,1.6768781138541972E-5,0.0027299641722360168
163,198.06355493599997,1.647719744621621E-5,0.002746441369682233
164,198.0426568727976,1.6513990290177696E-5,0.0027629553599724105
165,198.0216674413452,1.6482439898952564E-5,0.002779437799871363
166,198.00033109169445,1.6311581214491574E-5,0.002795749381085855
167,197.97867318883783,1.583572823534895E-5,0.0028115851093212037
168,197.95698646248627,1.556708642112168E-5,0.0028271521957423254
169,197.93483106549326,1.6156842938686187E-5,0.0028433090386810115
170,197.91192834371756,1.585059588130739E-5,0.002859159634562319
171,197.8897744678599,1.6886315033502666E-5,0.0028760459495958215
172,197.86808503310513,1.7125614739720675E-5,0.002893171564335542
173,197.84534158128585,1.7284373019031776E-5,0.002910455937354574
174,197.8231659867189,1.7697376360734228E-5,0.0029281533137153083
175,197.8015009271181,1.7831325389499785E-5,0.002945984639104808
176,197.77944573458416,1.7953715481238433E-5,0.0029639383545860465
177,197.75834879087316,1.7526471264563765E-5,0.00298146482585061
178,197.73766165519297,1.783667658495616E-5,0.0029993015024355665
179,197.71675585939275,1.7845707405797297E-5,0.003017147209841364
180,197.69555854868776,1.813131552254033E-5,0.003035278525363904
181,197.67545373844507,1.8367425059832315E-5,0.0030536459504237365
182,197.65690158733395,1.8348924212098228E-5,0.003071994874635835
183,197.63836359107725,1.839491643428894E-5,0.0030903897910701237
184,197.62060218246526,1.8340123623261934E-5,0.0031087299146933855
185,197.60288667338114,1.8663428190008658E-5,0.003127393342883394
186,197.58486027926756,1.852029522663121E-5,0.003145913638110025
187,197.5661369530457,1.8072941711001265E-5,0.0031639865798210264
188,197.54893474368913,1.7834201620510884E-5,0.0031818207814415375
189,197.53251261434312,1.7180827423389775E-5,0.003199001608864927
190,197.51538801537305,1.73830302408873E-5,0.0032163846391058144
191,197.49808636141515,1.7379330679200247E-5,0.0032337639697850146
192,197.47980634035954,1.7243711839274165E-5,0.003251007681624289
193,197.46064589174537,1.7586173464820366E-5,0.003268593855089109
194,197.44127021967813,1.7343033682793133E-5,0.003285936888771902
195,197.4212571076885,1.7588935157914303E-5,0.0033035258239298166
196,197.401659971773,1.721810979065115E-5,0.003320743933720468
197,197.38271003325968,1.7166015217938137E-5,0.003337909948938406
198,197.36279626421296,1.7051861987661282E-5,0.0033549618109260672
199,197.34312510485856,1.639065836991149E-5,0.0033713524692959786
200,197.3223061912569,1.6368640376649314E-5,0.003387721109672628
201,197.30164632015763,1.606381233641452E-5,0.0034037849220090424
202,197.28023911232847,1.6209370261767966E-5,0.0034199942922708104
203,197.2602775735208,1.6253626746852606E-5,0.003436247919017663
204,197.24051589733241,1.6779758480489095E-5,0.003453027677498152
205,197.22036205362758,1.625938323490009E-5,0.0034692870607330524
206,197.20032455862662,1.6867238009367223E-5,0.0034861542987424197
207,197.18015404406924,1.680687804905631E-5,0.003502961176791476
208,197.16034126537096,1.6333934726724906E-5,0.003519295111518201
209,197.1411991268047,1.606690553472632E-5,0.003535362017052927
210,197.12242085805562,1.653485362270538E-5,0.0035518968706756324
211,197.10352368799673,1.5993343964484805E-5,0.003567890214640117
212,197.08506057510368,1.6136098617566095E-5,0.0035840263132576834
213,197.06658876316877,1.6245403322519098E-5,0.0036002717165802027
214,197.04914715258076,1.621314947503958E-5,0.0036164848660552424
215,197.03195126803598,1.646759146248141E-5,0.003632952457517724
216,197.0137537531867,1.6243257360543457E-5,0.0036491957148782673
217,196.99483157223705,1.5798357735574985E-5,0.0036649940726138424
218,196.9765941610667,1.5617464327840777E-5,0.0036806115369416833
219,196.9584080203628,1.5840194194121572E-5,0.003696451731135805
220,196.94021729886572,1.5498217717640953E-5,0.003711949948853446
221,196.9217499998416,1.5625968405249563E-5,0.0037275759172586955
222,196.90260469728503,1.55901839898479E-5,0.0037431661012485434
223,196.8839525467827,1.5755664193983844E-5,0.003758921765442527
224,196.86475405385823,1.602154706148822E-5,0.0037749433125040155
225,196.84538667644367,1.5807926334531606E-5,0.0037907512388385472
226,196.8259188174223,1.534314556877106E-5,0.0038060943844073184
227,196.80631548208746,1.5915287018299507E-5,0.0038220096714256177
228,196.78642304709768,1.5857813709646912E-5,0.0038378674851352644
229,196.76563170806992,1.5832536597342688E-5,0.0038537000217326073
230,196.74398131346882,1.5869929375665053E-5,0.0038695699511082722
231,196.72223286638436,1.570048047333828E-5,0.0038852704315816104
232,196.70036610087777,1.578419143703489E-5,0.0039010546230186455
233,196.67897799428118,1.5914797734777996E-5,0.003916969420753424
234,196.65860565070273,1.5711018243487676E-5,0.003932680438996911
235,196.6388396724659,1.5441654238814172E-5,0.003948122093235725
236,196.61989757254202,1.571107245629635E-5,0.003963833165692021
237,196.6010143745103,1.6211320372847274E-5,0.003980044486064868
238,196.58105142798135,1.6220998753107087E-5,0.003996265484817975
239,196.5605724608942,1.6299130485993695E-5,0.004012564615303969
240,196.54058611278825,1.6713725557855347E-5,0.004029278340861824
241,196.52109616219974,1.625345794698802E-5,0.004045531798808812
242,196.50282554144087,1.654076803825513E-5,0.0040620725668470675
243,196.48507430034206,1.6213518360375588E-5,0.004078286085207443
244,196.46898860168477,1.6103994774243744E-5,0.004094390079981687
245,196.45357455485393,1.650147812503222E-5,0.004110891558106719
246,196.43887405618838,1.6537023264348125E-5,0.004127428581371067
247,196.42275170715536,1.615262560593058E-5,0.004143581206976998
248,196.40739305011982,1.5926509701400423E-5,0.004159507716678399
249,196.39180777987198,1.600945993957161E-5,0.00417551717661797
250,196.37631589743575,1.6641164722133505E-5,0.004192158341340104
251,196.36034260372966,1.6530527854059788E-5,0.004208688869194164
252,196.34444503672262,1.6326757530970152E-5,0.004225015626725134
253,196.32699806790168,1.675364971251738E-5,0.004241769276437652
254,196.3084780318769,1.6629104476511785E-5,0.004258398380914163
255,196.2899457158841,1.6197141443611294E-5,0.004274595522357774
256,196.27241016923267,1.6295389035165308E-5,0.00429089091139294
257,196.25555737206082,1.6468439179449127E-5,0.004307359350572389
258,196.23798164226875,1.6456770896598306E-5,0.004323816121468987
259,196.2213339532303,1.676318618592733E-5,0.004340579307654914
260,196.203188476979,1.734962601095995E-5,0.004357928933665874
261,196.18423848857748,1.67363632926813E-5,0.004374665296958556
262,196.16451971527238,1.6985805038615002E-5,0.004391651101997171
263,196.14259099326614,1.69706481603286E-5,0.004408621750157499
264,196.12098757417945,1.6610757588617316E-5,0.004425232507746116
265,196.09937451814622,1.6384210944526252E-5,0.004441616718690642
266,196.07810001668668,1.6459999162674242E-5,0.004458076717853317
267,196.05578535773205,1.660334597008379E-5,0.0044746800638234005
268,196.03358243683223,1.6689436557625345E-5,0.004491369500381026
269,196.01202517137497,1.691056417587756E-5,0.004508280064556903
270,195.99230243969194,1.756396651979101E-5,0.004525844031076694
271,195.972543355459,1.7284463720423625E-5,0.004543128494797118
272,195.9524342979624,1.7628670405398717E-5,0.004560757165202516
273,195.93325355644836,1.795564443759569E-5,0.0045787128096401114
274,195.9137324883951,1.752637336738989E-5,0.004596239183007502
275,195.89468331611832,1.7699253477635658E-5,0.004613938436485138
276,195.87561915308345,1.7410152353828796E-5,0.004631348588838967
277,195.85600537735502,1.8290196337804097E-5,0.004649638785176771
278,195.83779971742902,1.7998770544574134E-5,0.004667637555721345
279,195.8199828412162,1.8113856652730768E-5,0.004685751412374076
280,195.80335990921282,1.8116291317644494E-5,0.004703867703691721
281,195.7863743363956,1.767507744154743E-5,0.004721542781133268
282,195.76753324675903,1.786607039162011E-5,0.004739408851524888
283,195.74858163352923,1.783444875612051E-5,0.004757243300281008
284,195.72676117708897,1.817670478124655E-5,0.004775420005062254
285,195.70512489980044,1.8063865382545676E-5,0.0047934838704448
286,195.68325201494014,1.7609495944531506E-5,0.004811093366389331
287,195.66286311959269,1.7502904455378037E-5,0.004828596270844709
288,195.64246190035684,1.704373040533973E-5,0.004845640001250049
289,195.62236106340376,1.6571959770030613E-5,0.0048622119610200795
290,195.60133175392582,1.6405728220865936E-5,0.004878617689240946
291,195.58001644348775,1.6475282966316052E-5,0.004895092972207262
292,195.5570071358216,1.5847509830366986E-5,0.004910940482037629
293,195.5338640699002,1.6138701850780544E-5,0.00492707918388841
294,195.51097546561888,1.626813832872985E-5,0.00494334732221714
295,195.4889884806189,1.6293934483923692E-5,0.004959641256701064
296,195.46653608856417,1.609441454793864E-5,0.004975735671249003
297,195.4454070422477,1.558125825795338E-5,0.004991316929506956
298,195.42370705287567,1.515223973526646E-5,0.005006469169242222
299,195.4032285668826,1.5508244333409392E-5,0.005021977413575632
300,195.3820560164813,1.6051532650001606E-5,0.005038028946225633
301,195.35898024551148,1.640175014945101E-5,0.005054430696375085
302,195.33615703984327,1.6393936964623212E-5,0.005070824633339708
303,195.31368150135847,1.6646937965152762E-5,0.005087471571304861
304,195.29130217731554,1.7263515581760127E-5,0.005104735086886621
305,195.2695063466658,1.6887659558577658E-5,0.005121622746445199
