#t,ESS,tempDiff,temp
0,200.00000000000065,0.0,0.0
1,199.9997999999987,5.358554626947091E-6,5.358554626947091E-6
2,199.99920291370896,5.44718584421988E-6,1.080574047116697E-5
3,199.9982130927465,5.423542002487898E-6,1.622928247365487E-5
4,199.99683439806816,5.521468318012678E-6,2.1750750791667545E-5
5,199.99506334499608,5.495014780124219E-6,2.7245765571791763E-5
6,199.9929060774774,5.508761979850725E-6,3.2754527551642486E-5
7,199.99037080900519,5.4855550398453555E-6,3.824008259148784E-5
8,199.98747004034524,5.503468086274644E-6,4.374355067776248E-5
9,199.984183975316,5.447420712966903E-6,4.9190971390729385E-5
10,199.98052043741754,5.448852869532798E-6,5.463982426026218E-5
11,199.97649445955673,5.421470411278468E-6,6.006129467154065E-5
12,199.97211896772046,5.384914584766136E-6,6.544620925630678E-5
13,199.9673650869071,5.399360961916984E-6,7.084557021822376E-5
14,199.96226030850926,5.3416360793344255E-6,7.618720629755819E-5
15,199.9567890554805,5.322178896258443E-6,8.150938519381663E-5
16,199.9509423270012,5.251092362536201E-6,8.676047755635284E-5
17,199.9447254912217,5.210468266941206E-6,9.197094582329404E-5
18,199.93816007692112,5.20006772957853E-6,9.717101355287256E-5
19,199.9312159060239,5.174049405182946E-6,1.0234506295805551E-4
20,199.92388896314534,5.184310847026391E-6,1.075293738050819E-4
21,199.9162814133354,5.087285301173647E-6,1.1261665910625556E-4
22,199.90833248575473,5.062425943394567E-6,1.1767908504965013E-4
23,199.90002954586836,5.062941362934843E-6,1.2274202641258497E-4
24,199.89140322699987,5.089081539487419E-6,1.2783110795207237E-4
25,199.88237850099136,5.072179703898116E-6,1.329032876559705E-4
26,199.87294177814033,5.164544336842247E-6,1.3806783199281274E-4
27,199.86320026016276,5.172299343101812E-6,1.4324013133591455E-4
28,199.8531560398524,5.09490339891568E-6,1.4833503473483023E-4
29,199.84276754071797,5.042652899909784E-6,1.5337768763474E-4
30,199.83202374266105,5.053919969748945E-6,1.5843160760448894E-4
31,199.82093017138524,5.038639955626037E-6,1.6347024756011496E-4
32,199.8095151327343,5.052136842666074E-6,1.6852238440278103E-4
33,199.7977067985979,5.042496470991394E-6,1.7356488087377244E-4
34,199.78554882322203,5.050935094939605E-6,1.7861581596871206E-4
35,199.77308366780662,5.075560689630059E-6,1.8369137665834212E-4
36,199.7603446970034,5.069754142749465E-6,1.8876113080109157E-4
37,199.7472973051192,5.115226420376125E-6,1.938763572214677E-4
38,199.73397191671302,5.155667221730127E-6,1.9903202444319785E-4
39,199.72029186354075,5.135592955554139E-6,2.04167617398752E-4
40,199.70628826576743,5.180432235350108E-6,2.093480496341021E-4
41,199.69204662400347,5.225411465554579E-6,2.145734610996567E-4
42,199.67746681480517,5.2599039015125344E-6,2.1983336500116922E-4
43,199.66253721008428,5.34231747988509E-6,2.251756824810543E-4
44,199.64729076306162,5.363565611057204E-6,2.305392480921115E-4
45,199.6315678986028,5.420179320634681E-6,2.359594274127462E-4
46,199.61552895244955,5.361648616010748E-6,2.4132107602875696E-4
47,199.59927566435815,5.391232090844993E-6,2.4671230811960194E-4
48,199.5827079539457,5.365498816523926E-6,2.5207780693612585E-4
49,199.56598239774453,5.309318685914966E-6,2.573871256220408E-4
50,199.54883911415024,5.277907551142269E-6,2.626650331731831E-4
51,199.53127152851684,5.250019420567579E-6,2.6791505259375067E-4
52,199.51349695367892,5.236033202068281E-6,2.73151085795819E-4
53,199.49530231177988,5.1935797111204E-6,2.7834466550693936E-4
54,199.47698238846579,5.17966178048273E-6,2.835243272874221E-4
55,199.45841191322273,5.165588001470948E-6,2.8868991528889303E-4
56,199.43956150768608,5.170409373782856E-6,2.938603246626759E-4
57,199.42034132999132,5.173267505435055E-6,2.990335921681109E-4
58,199.40079641573246,5.217960913555199E-6,3.042515530816661E-4
59,199.38084945768978,5.258430486205108E-6,3.095099835678712E-4
60,199.3608962678947,5.326995550230985E-6,3.148369791181022E-4
61,199.34057784521264,5.254975383212077E-6,3.200919545013143E-4
62,199.31995038276048,5.2158503046409E-6,3.253078048059552E-4
63,199.2990298394247,5.155837082009201E-6,3.304636418879644E-4
64,199.27784320572417,5.215909788185798E-6,3.356795516761502E-4
65,199.25632967127902,5.189980425080913E-6,3.408695321012311E-4
66,199.2347107130161,5.16136695058725E-6,3.460308990518184E-4
67,199.21271429470096,5.175060509585193E-6,3.512059595614036E-4
68,199.19050472892337,5.11938681391438E-6,3.5632534637531797E-4
69,199.16800942767293,5.115757146767888E-6,3.6144110352208587E-4
70,199.14561216387713,5.0609456780682675E-6,3.6650204920015415E-4
71,199.12286842316257,5.031253847427809E-6,3.7153330304758194E-4
72,199.09996100428728,4.971510860425445E-6,3.765048139080074E-4
73,199.07681623865028,4.9772674139453566E-6,3.8148208132195274E-4
74,199.0536994425962,4.991289789915437E-6,3.864733711118682E-4
75,199.03022110648934,4.98313350033694E-6,3.9145650461220514E-4
76,199.00646649052524,5.025098996927864E-6,3.96481603609133E-4
77,198.9824775300312,5.014803857775411E-6,4.014964074669084E-4
78,198.95822319880517,5.013937994181165E-6,4.065103454610896E-4
79,198.93383505502635,5.138314461596943E-6,4.116486599226865E-4
80,198.90926052494856,5.082864688525599E-6,4.167315246112121E-4
81,198.88449839199103,5.127934110923689E-6,4.218594587221358E-4
82,198.8592317712723,5.112541125452547E-6,4.2697199984758835E-4
83,198.83377548325817,5.140240205743526E-6,4.321122400533319E-4
84,198.8081059966789,5.140876796726583E-6,4.3725311685005846E-4
85,198.78207410411022,5.12770124689139E-6,4.4238081809694986E-4
86,198.75589057316185,5.030596214788382E-6,4.474114143117382E-4
87,198.72948309122035,4.9857715571410765E-6,4.523971858688793E-4
88,198.70283898915807,4.936587155474307E-6,4.573337730243536E-4
89,198.6758342217787,4.95130216985957E-6,4.6228507519421316E-4
90,198.64864284363625,4.914319610776852E-6,4.6719939480499003E-4
91,198.62127036030935,4.97623746957632E-6,4.7217563227456633E-4
92,198.59352067319904,4.974458017975093E-6,4.771500902925414E-4
93,198.56543021292043,4.886710233730011E-6,4.8203680052627144E-4
94,198.53715591008628,4.916625102742795E-6,4.869534256290142E-4
95,198.50832736856032,4.846693377064217E-6,4.918001190060785E-4
96,198.47930417851086,4.874120103502695E-6,4.966742391095811E-4
97,198.44986848698227,4.898261392343993E-6,5.015725005019251E-4
98,198.41997673540067,4.834952572554081E-6,5.064074530744791E-4
99,198.38991739401766,4.812475701160911E-6,5.112199287756401E-4
100,198.3593433313055,4.8364473912021745E-6,5.160563761668422E-4
101,198.32863865248112,4.824455524309898E-6,5.208808316911521E-4
102,198.2974584112867,4.781992814205163E-6,5.256628245053572E-4
103,198.2661035991335,4.784845460653331E-6,5.304476699660105E-4
104,198.23456186469227,4.822030122663174E-6,5.352697000886737E-4
105,198.20298437148517,4.847276170469929E-6,5.401169762591436E-4
106,198.17089857296898,4.914960583959601E-6,5.450319368431032E-4
107,198.13866832574692,4.945086415820048E-6,5.499770232589232E-4
108,198.10652113200302,4.908410413632503E-6,5.548854336725557E-4
109,198.07426377686886,4.966395816207357E-6,5.59851829488763E-4
110,198.0419004648981,4.991171965682837E-6,5.648430014544459E-4
111,198.00928495954483,4.9352809283547165E-6,5.697782823828007E-4
112,197.97667357270083,4.8926704521669855E-6,5.746709528349677E-4
113,197.9435825702872,4.958781259615808E-6,5.796297340945835E-4
114,197.91031487212788,4.916135528056233E-6,5.845458696226397E-4
115,197.87652901643358,4.8790746610253965E-6,5.894249442836651E-4
116,197.8423132297563,4.8940349895261115E-6,5.943189792731912E-4
117,197.80770083090846,4.904094603727783E-6,5.99223073876919E-4
118,197.773519253433,4.890976237719036E-6,6.04114050114638E-4
119,197.73940990667862,4.8934928555920505E-6,6.0900754297023E-4
120,197.7053535595857,4.9181347454070685E-6,6.139256777156371E-4
121,197.67083669228145,4.967325829035425E-6,6.188930035446725E-4
122,197.63645486723178,4.934147121325977E-6,6.238271506659985E-4
123,197.6020062015157,4.872738451525998E-6,6.286998891175245E-4
124,197.5673712829176,4.8620979359759965E-6,6.335619870535005E-4
125,197.53290989897212,4.793245681542014E-6,6.383552327350426E-4
126,197.4986662021347,4.794915992395062E-6,6.431501487274376E-4
127,197.46433020388295,4.794607499980587E-6,6.479447562274182E-4
128,197.4295923697131,4.86051749931258E-6,6.528052737267307E-4
129,197.39449868288298,4.850999823356962E-6,6.576562735500877E-4
130,197.359042765371,4.874748393881269E-6,6.625310219439689E-4
131,197.32343153495006,4.879940516383661E-6,6.674109624603526E-4
132,197.28747147413392,4.9777931847585255E-6,6.723887556451112E-4
133,197.2512214211534,4.9968852363598E-6,6.773856408814709E-4
134,197.2146125805655,5.083816753965003E-6,6.82469457635436E-4
135,197.1772954219282,5.092690393433452E-6,6.875621480288694E-4
136,197.1398936990469,5.155912359381349E-6,6.927180603882508E-4
137,197.10231521180881,5.163054506556346E-6,6.978811148948071E-4
138,197.06436201804613,5.178712145535865E-6,7.03059827040343E-4
139,197.0265511023273,5.234083583050314E-6,7.082939106233933E-4
140,196.98818815780245,5.230127572660098E-6,7.135240381960534E-4
141,196.9495868643787,5.226852607802193E-6,7.187508908038556E-4
142,196.91084678046929,5.2574582304297315E-6,7.240083490342854E-4
143,196.87209698824327,5.286898280128285E-6,7.292952473144137E-4
144,196.83317882903194,5.2617608272436554E-6,7.345570081416573E-4
145,196.794154903411,5.237853410576376E-6,7.397948615522337E-4
146,196.75484751165405,5.228292728155371E-6,7.450231542803891E-4
147,196.71560433683953,5.290783711926548E-6,7.503139379923156E-4
148,196.6759398131008,5.316503573706876E-6,7.556304415660224E-4
149,196.6359255924218,5.2583829015315784E-6,7.60888824467554E-4
150,196.59661778147935,5.232598146372229E-6,7.661214226139263E-4
151,196.55676585949368,5.252055877921743E-6,7.71373478491848E-4
152,196.51723043801752,5.08094401755345E-6,7.764544225094015E-4
153,196.477779514889,5.0382557460205455E-6,7.81492678255422E-4
154,196.43787562931652,4.987672027993176E-6,7.864803502834152E-4
155,196.39758090679354,4.987414937626445E-6,7.914677652210417E-4
156,196.3576458674668,5.049390142964344E-6,7.96517155364006E-4
157,196.31766508218678,5.042874897452404E-6,8.015600302614584E-4
158,196.27804922183356,5.012997155931917E-6,8.065730274173903E-4
159,196.23804769645767,5.018211357086728E-6,8.11591238774477E-4
160,196.197827373638,5.047878007936889E-6,8.166391167824139E-4
161,196.15645476615254,5.047560113502152E-6,8.21686676895916E-4
162,196.11488685769893,5.094438138865531E-6,8.267811150347816E-4
163,196.07302878293808,5.106300097381294E-6,8.318874151321628E-4
164,196.03089211278942,5.058420478897996E-6,8.369458356110608E-4
165,195.98799076854291,5.064460095596248E-6,8.42010295706657E-4
166,195.94535162168432,5.067667378102944E-6,8.4707796308476E-4
167,195.90272546881354,5.004069850064974E-6,8.520820329348249E-4
168,195.86001768887746,5.05262977465891E-6,8.571346627094838E-4
169,195.81713276779985,5.094606828931176E-6,8.62229269538415E-4
170,195.77393451612326,5.092339333511028E-6,8.67321608871926E-4
171,195.73024394909189,5.082562330288564E-6,8.724041712022145E-4
172,195.6866285032728,5.081664894120398E-6,8.77485836096335E-4
173,195.64258801815066,5.109827446993407E-6,8.825956635433284E-4
174,195.59921351396216,5.072667438611417E-6,8.876683309819398E-4
175,195.55617314885296,5.097220555644066E-6,8.927655515375838E-4
176,195.5133676295227,5.052101920255455E-6,8.978176534578392E-4
177,195.47050866535383,5.078311450730535E-6,9.028959649085697E-4
178,195.4275947439113,5.038693353553129E-6,9.079346582621229E-4
179,195.38480429653924,5.015485442491871E-6,9.129501437046148E-4
180,195.34245248757588,4.959526418257469E-6,9.179096701228722E-4
181,195.30056453763368,5.009893281285324E-6,9.229195634041575E-4
182,195.25832977832567,5.022647660602432E-6,9.2794221106476E-4
183,195.2160538002651,4.994139524476212E-6,9.329363505892362E-4
184,195.1734363813434,4.960977515174055E-6,9.378973281044103E-4
185,195.130389625397,4.982535146694547E-6,9.428798632511049E-4
186,195.08751362712874,4.9102979392592095E-6,9.477901611903641E-4
187,195.044369233155,4.91766795010672E-6,9.527078291404708E-4
188,195.00042352884378,4.878348163040916E-6,9.575861773035117E-4
189,194.95624995589785,4.854827965649842E-6,9.624410052691615E-4
190,194.91190164653395,4.8382046169588535E-6,9.672792098861203E-4
191,194.86709110899096,4.882642750978887E-6,9.721618526370992E-4
192,194.82250198247317,4.872002315469226E-6,9.770338549525684E-4
193,194.7776778699149,4.847191702724593E-6,9.81881046655293E-4
194,194.7328768271604,4.867243336407456E-6,9.867482899917003E-4
195,194.68819771432914,4.862355530284519E-6,9.916106455219848E-4
196,194.64344497423605,4.814283046396517E-6,9.964249285683814E-4
197,194.59832068190227,4.817202803514224E-6,0.0010012421313718956
198,194.55268456887308,4.78343569497663E-6,0.0010060255670668722
199,194.5072452151038,4.784617496362611E-6,0.001010810184563235
200,194.4622934426137,4.6363446918910376E-6,0.001015446529255126
201,194.417762188821,4.731308418375736E-6,0.0010201778376735017
202,194.3741681825079,4.765102430200977E-6,0.0010249429401037026
203,194.3315590649083,4.746184864360524E-6,0.001029689124968063
204,194.28844951943776,4.7136668010148794E-6,0.001034402791769078
205,194.24429619301065,4.690448719055098E-6,0.0010390932404881331
206,194.19992937662758,4.736803086687891E-6,0.001043830043574821
207,194.15516774389152,4.641845437642852E-6,0.001048471889012464
208,194.11075341575378,4.617930788275504E-6,0.0010530898198007396
209,194.06596771449367,4.569708300721539E-6,0.001057659528101461
210,194.02184402231046,4.535399518686048E-6,0.0010621949276201472
211,193.97717704145077,4.513194336929951E-6,0.0010667081219570772
212,193.93219779883256,4.543844584416958E-6,0.0010712519665414943
213,193.8871071341102,4.582313209311814E-6,0.001075834279750806
214,193.84172821187633,4.600483760667852E-6,0.0010804347635114738
215,193.7964269828533,4.609872319850872E-6,0.0010850446358313247
216,193.7505325184326,4.6280823260697255E-6,0.0010896727181573945
217,193.70505668656,4.651608084721201E-6,0.0010943243262421158
218,193.65956958530444,4.703777505405026E-6,0.001099028103747521
219,193.6138473715095,4.7771408620513935E-6,0.0011038052446095724
220,193.5676450701636,4.805874455150206E-6,0.0011086111190647227
221,193.52123759075164,4.810969273980594E-6,0.0011134220883387033
222,193.474312329462,4.7524380230089565E-6,0.0011181745263617122
223,193.42717679312454,4.803635450603443E-6,0.0011229781618123157
224,193.38000348398745,4.788650445892847E-6,0.0011277668122582085
225,193.3324855077267,4.8125635139040726E-6,0.0011325793757721125
226,193.2846821662652,4.811883915051955E-6,0.0011373912596871645
227,193.2367438871254,4.826441902185882E-6,0.0011422177015893505
228,193.18912352527792,4.876541398992614E-6,0.0011470942429883432
229,193.14133042553695,4.867045970412773E-6,0.001151961288958756
230,193.09341790316293,4.8803999976291166E-6,0.001156841688956385
231,193.0455047872921,4.880122600263758E-6,0.0011617218115566488
232,192.99813896818537,4.862827390790845E-6,0.0011665846389474397
233,192.95006379528286,4.844647597713362E-6,0.0011714292865451531
234,192.90175446523625,4.827803869144505E-6,0.0011762570904142976
235,192.8536909979695,4.855218486003723E-6,0.0011811123089003014
236,192.80529685534387,4.865558897551742E-6,0.001185977867797853
237,192.75634697971972,4.8412103447763825E-6,0.0011908190781426294
238,192.70716164855813,4.858648366492141E-6,0.0011956777265091216
239,192.6586540777439,4.784728939976937E-6,0.0012004624554490986
240,192.60993741606848,4.8337013899246905E-6,0.0012052961568390233
241,192.56144964919235,4.739262031270908E-6,0.0012100354188702943
242,192.51319568021748,4.761185620711924E-6,0.0012147966044910063
243,192.46522811952897,4.735036207825038E-6,0.0012195316406988313
244,192.4172472073346,4.803137161392748E-6,0.001224334777860224
245,192.36904816314672,4.779138632020633E-6,0.0012291139164922447
246,192.32016492761483,4.780278952550073E-6,0.0012338941954447948
247,192.27121383625928,4.791850541960703E-6,0.0012386860459867555
248,192.22224590197624,4.709524353431645E-6,0.0012433955703401872
249,192.1738141045882,4.711746101543985E-6,0.0012481073164417311
250,192.1252389222368,4.751891960546141E-6,0.0012528592084022773
251,192.076298306034,4.7147844084007435E-6,0.001257573992810678
252,192.02642427671518,4.685317065235253E-6,0.0012622593098759133
253,191.97717233762208,4.64195674632474E-6,0.001266901266622238
254,191.92758227593743,4.651240069329291E-6,0.0012715525066915672
255,191.87726361079805,4.673891781583618E-6,0.0012762263984731508
256,191.82735685690145,4.7348711170905016E-6,0.0012809612695902414
257,191.7778545338735,4.725251351759984E-6,0.0012856865209420014
258,191.72785529668184,4.72878868512481E-6,0.0012904153096271263
259,191.67782532632683,4.758209749429577E-6,0.0012951735193765558
260,191.62738162559668,4.767070572200501E-6,0.0012999405899487564
261,191.57683680181677,4.770598168628626E-6,0.001304711188117385
262,191.52591959038608,4.798266674047197E-6,0.0013095094547914323
263,191.47575290332165,4.825866795103581E-6,0.0013143353215865359
264,191.42571774440825,4.884108950603692E-6,0.0013192194305371395
265,191.37519445150994,4.864494655523494E-6,0.001324083925192663
266,191.3241265607754,4.866489773234713E-6,0.0013289504149658975
267,191.2727831656418,4.885406426582016E-6,0.0013338358213924797
268,191.22068258042574,4.920344620399942E-6,0.0013387561660128796
269,191.16879369788572,4.902918885972148E-6,0.0013436590848988517
270,191.11706373064814,4.871884328617003E-6,0.0013485309692274688
271,191.064925222728,4.876553704560742E-6,0.0013534075229320295
272,191.01187709882169,4.887864237013886E-6,0.0013582953871690434
273,190.95948285503673,4.879670128070217E-6,0.0013631750572971136
274,190.9074814888179,4.903531392071787E-6,0.0013680785886891853
275,190.8556726873492,4.884143840398989E-6,0.0013729627325295842
276,190.80387496928302,4.892744744602826E-6,0.001377855477274187
277,190.75084088670428,4.84642257633394E-6,0.001382701899850521
278,190.69816285408808,4.889938631233917E-6,0.0013875918384817548
279,190.64502965980552,4.847502370445543E-6,0.0013924393408522003
280,190.59142396185135,4.787524752750653E-6,0.001397226865604951
281,190.53774564912052,4.778507766776862E-6,0.0014020053733717279
282,190.48395875531492,4.704098949478078E-6,0.001406709472321206
283,190.43050440161645,4.777129360193888E-6,0.0014114866016813998
284,190.37666101840028,4.7530964487497894E-6,0.0014162396981301495
285,190.3237133262664,4.785981823324687E-6,0.0014210256799534742
286,190.2705314483998,4.764750081613336E-6,0.0014257904300350875
287,190.21748628519197,4.7120040844368945E-6,0.0014305024341195243
288,190.16483743156087,4.760905955503662E-6,0.001435263340075028
289,190.1118073099819,4.797243434723616E-6,0.0014400605835097515
290,190.0588480646355,4.798126563309184E-6,0.0014448587100730607
291,190.00499114305475,4.821476121498855E-6,0.0014496801861945596
292,189.95214319871286,4.806272387798161E-6,0.0014544864585823577
293,189.8995346671074,4.811837903884761E-6,0.0014592982964862424
294,189.84727307314031,4.824967095333473E-6,0.001464123263581576
295,189.79470574090408,4.877095313521882E-6,0.001469000358895098
296,189.7427749103796,4.881489481052274E-6,0.0014738818483761502
297,189.6912629943264,4.834285205251038E-6,0.0014787161335814013
298,189.64022936770235,4.809983772212328E-6,0.0014835261173536136
299,189.59022674974858,4.749402914457821E-6,0.0014882755202680713
300,189.5403525212295,4.8054742027207905E-6,0.001493080994470792
301,189.48994353044444,4.710684153190695E-6,0.0014977916786239828
302,189.43901899179815,4.739697833820384E-6,0.0015025313764578032
303,189.3880062921781,4.760675620856119E-6,0.0015072920520786592
304,189.33668271482713,4.655113030651867E-6,0.001511947165109311
305,189.28511474812152,4.664917770443709E-6,0.0015166120828797548
306,189.23373940090755,4.681353849069994E-6,0.0015212934367288247
307,189.18119080782526,4.696825697812732E-6,0.0015259902624266374
308,189.1286854530822,4.688445514489492E-6,0.0015306787079411269
