#t,ESS,tempDiff,temp
0,100.00000000000006,0.0,0.0
1,99.99903632598505,1.3207530721241925E-5,1.3207530721241925E-5
2,99.99615615292602,1.3496280701506255E-5,2.6703811422748178E-5
3,99.9914261962616,1.3263618021342717E-5,3.9967429444090896E-5
4,99.98503406447574,1.3441571707532512E-5,5.340900115162341E-5
5,99.97714520780677,1.2777768986035935E-5,6.618677013765934E-5
6,99.96812261096221,1.2268781099658927E-5,7.845555123731826E-5
7,99.95810671803929,1.2158785055970777E-5,9.061433629328904E-5
8,99.94654536830193,1.2189447694722013E-5,1.0280378398801105E-4
9,99.93351708951776,1.2229013256387507E-5,1.1503279724439856E-4
10,99.91878847561404,1.221501510326149E-5,1.2724781234766004E-4
11,99.90336928142226,1.2114733204576576E-5,1.3936254555223663E-4
12,99.8866584655186,1.2238690792063165E-5,1.516012363442998E-4
13,99.86845780863949,1.2132328155332363E-5,1.6373356449963218E-4
14,99.84872495309233,1.1917962207884778E-5,1.7565152670751696E-4
15,99.82843431379229,1.197400158809924E-5,1.876255282956162E-4
16,99.80605540802637,1.23003550742717E-5,1.999258833698879E-4
17,99.78275550424422,1.1970937339389714E-5,2.118968207092776E-4
18,99.75770169614955,1.1839241585002972E-5,2.2373606229428056E-4
19,99.73194125574452,1.1941830556097688E-5,2.3567789285037824E-4
20,99.70404345963935,1.1735800562383485E-5,2.474136934127617E-4
21,99.67506952050954,1.1778569148128847E-5,2.5919226256089056E-4
22,99.6444061513132,1.1665218510806574E-5,2.708574810716971E-4
23,99.6138360814969,1.1473688425036563E-5,2.823311694967337E-4
24,99.58038913680254,1.1918085807057432E-5,2.9424925530379114E-4
25,99.54627187237524,1.2008970829691944E-5,3.062582261334831E-4
26,99.50960263235802,1.2162596423558432E-5,3.184208225570415E-4
27,99.47139565377746,1.261364775488978E-5,3.310344703119313E-4
28,99.43198579813745,1.2429615754321923E-5,3.434640860662532E-4
29,99.38991004493376,1.2581240840049662E-5,3.560453269063029E-4
30,99.34710253677709,1.2541456426601029E-5,3.685867833329039E-4
31,99.30561710833774,1.2636883849792448E-5,3.812236671826964E-4
32,99.26176870050193,1.2469547035588303E-5,3.936932142182847E-4
33,99.21548114120137,1.2658111348543385E-5,4.0635132556682805E-4
34,99.16667305521064,1.2920347393221452E-5,4.192716729600495E-4
35,99.12140924523484,1.2654244597604325E-5,4.319259175576538E-4
36,99.07426322477157,1.2635337761204978E-5,4.445612553188588E-4
37,99.02372110751705,1.3153311596956485E-5,4.5771456691581525E-4
38,98.97145344243954,1.3503025156939573E-5,4.712175920727548E-4
39,98.91478075463235,1.38858002402178E-5,4.851033923129726E-4
40,98.85799877893523,1.3926290527452595E-5,4.990296828404252E-4
41,98.80346832141818,1.3578668737731015E-5,5.126083515781561E-4
42,98.7489096096674,1.3457845821481041E-5,5.260661973996372E-4
43,98.69190516424729,1.3843709080910094E-5,5.399099064805473E-4
44,98.62834009907492,1.4089405382151779E-5,5.539993118626991E-4
45,98.56335564108181,1.3907799501969148E-5,5.679071113646682E-4
46,98.49637902567662,1.3916802730358352E-5,5.818239140950265E-4
47,98.4298969379642,1.3506560295869355E-5,5.953304743908958E-4
48,98.36434052255528,1.3707522570643648E-5,6.090379969615395E-4
49,98.29838199263811,1.3594184144533933E-5,6.226321811060734E-4
50,98.23277864708221,1.3231254550658871E-5,6.358634356567323E-4
51,98.16816037616306,1.2906380022724706E-5,6.48769815679457E-4
52,98.10258021420074,1.287660593505598E-5,6.61646421614513E-4
53,98.02965588335304,1.3403415412556032E-5,6.750498370270691E-4
54,97.95858972931751,1.2906448171823166E-5,6.879562851988923E-4
55,97.88352247828915,1.3064858291284137E-5,7.010211434901764E-4
56,97.80773910460304,1.28878939258865E-5,7.139090374160629E-4
57,97.72879830651,1.2675419516237234E-5,7.265844569323001E-4
58,97.64872814491599,1.2418822961323346E-5,7.390032798936235E-4
59,97.5709650719755,1.226199717287874E-5,7.512652770665022E-4
60,97.4891435815543,1.2529285311102778E-5,7.63794562377605E-4
61,97.40553402109639,1.2343826076905824E-5,7.761383884545109E-4
62,97.32188194762765,1.2326089398003452E-5,7.884644778525143E-4
63,97.24040442705495,1.2067199771008966E-5,8.005316776235232E-4
64,97.1589660915232,1.1800284602394071E-5,8.123319622259172E-4
65,97.07590811258571,1.1834468414807214E-5,8.241664306407245E-4
66,96.99234697337307,1.1434048291377222E-5,8.356004789321017E-4
67,96.90924385999747,1.1292931572478576E-5,8.468934105045802E-4
68,96.82599000241437,1.119580890014116E-5,8.580892194047214E-4
69,96.7403599317879,1.1245484018325879E-5,8.693347034230473E-4
70,96.65646163988683,1.0890730220878425E-5,8.802254336439257E-4
71,96.568843620977,1.1149788764982494E-5,8.913752224089082E-4
72,96.47857927781102,1.1311867872204128E-5,9.026870902811122E-4
73,96.38614741518397,1.1218803470485997E-5,9.139058937515982E-4
74,96.28725877807945,1.1601211494272595E-5,9.255071052458708E-4
75,96.1961549984188,1.163408060502479E-5,9.371411858508956E-4
76,96.10399574007594,1.1521304664673425E-5,9.48662490515569E-4
77,96.01176633401296,1.1580941367873546E-5,9.602434318834426E-4
78,95.91761604825926,1.1317680219860724E-5,9.715611121033033E-4
79,95.82330615209843,1.1213257925909877E-5,9.827743700292133E-4
80,95.73042875337757,1.1231382111257435E-5,9.940057521404706E-4
81,95.6400877462923,1.1155677263401418E-5,0.0010051614294038721
82,95.5475220122285,1.1051848367942608E-5,0.0010162132777718146
83,95.45584163354096,1.1203952898284126E-5,0.0010274172306700988
84,95.36361440401201,1.1131247871645729E-5,0.0010385484785417445
85,95.27174591736143,1.0842365826095259E-5,0.0010493908443678396
86,95.17780874053807,1.0864783682880064E-5,0.0010602556280507197
87,95.08162626241041,1.0735101329325911E-5,0.0010709907293800457
88,94.9870575098472,1.0529965234827994E-5,0.0010815206946148737
89,94.89166250050575,1.0422261791414213E-5,0.001091942956406288
90,94.79498124869538,1.072006656977659E-5,0.0011026630229760647
91,94.69776635538541,1.084597151750009E-5,0.0011135089944935648
92,94.6018414787494,1.0692118353669171E-5,0.001124201112847234
93,94.50462347996819,1.0726370266150714E-5,0.0011349274831133848
94,94.4051522184556,1.0933314205401994E-5,0.0011458607973187868
95,94.30596601737491,1.0855085577104448E-5,0.0011567158828958912
96,94.20409524765661,1.1122474616438264E-5,0.0011678383575123295
97,94.10284264276805,1.1160161268499856E-5,0.0011789985187808294
98,94.00280808330295,1.110370535455258E-5,0.0011901022241353819
99,93.90333311420434,1.1092581290849438E-5,0.0012011948054262314
100,93.806257562835,1.0982937247154279E-5,0.0012121777426733857
101,93.70892621682034,1.0948761902933408E-5,0.001223126504576319
102,93.61119903384443,1.0929956904430958E-5,0.00123405646148075
103,93.51414455906752,1.0858989691523214E-5,0.0012449154511722732
104,93.41505010739925,1.0912532037820365E-5,0.0012558279832100936
105,93.31591432912558,1.07504048813369E-5,0.0012665783880914305
106,93.21633707207569,1.092292650033985E-5,0.0012775013145917703
107,93.11747687069096,1.0811323390061055E-5,0.0012883126379818314
108,93.01816577942823,1.1036395632913284E-5,0.0012993490336147447
109,92.91919666915835,1.0855228112208071E-5,0.0013102042617269528
110,92.82131549368412,1.0757131716714535E-5,0.0013209613934436672
111,92.7238092959092,1.0628529489680793E-5,0.001331589922933348
112,92.62293673715563,1.1113176477774902E-5,0.001342703099411123
113,92.52052254119027,1.0986911100020356E-5,0.0013536900105111434
114,92.41812459430218,1.112426347719983E-5,0.0013648142739883433
115,92.32361079650482,1.133832001178362E-5,0.001376152594000127
116,92.23077845471475,1.1352642341487264E-5,0.0013875052363416143
117,92.14218536524245,1.1082314404986966E-5,0.0013985875507466013
118,92.05040477670202,1.1089831333658548E-5,0.0014096773820802598
119,91.95613710498141,1.1134170838186654E-5,0.0014208115529184464
120,91.85547356639745,1.1657848986299782E-5,0.0014324694019047463
121,91.75081513779645,1.1877092121923171E-5,0.0014443464940266694
122,91.64575789596847,1.2012550661641734E-5,0.0014563590446883112
123,91.53761039089795,1.1769173197538248E-5,0.0014681282178858493
124,91.427452443335,1.1712838188695078E-5,0.0014798410560745443
125,91.31618898475683,1.1924242323715386E-5,0.0014917652983982596
126,91.20574186524196,1.1856530355338264E-5,0.0015036218287535978
127,91.09365807921253,1.1942413486586835E-5,0.0015155642422401846
128,90.98354233414433,1.205424090684897E-5,0.0015276184831470336
129,90.87505118547338,1.2324279563617516E-5,0.001539942762710651
130,90.76594392843488,1.2427351798330006E-5,0.001552370114508981
131,90.64911494510255,1.2201908316669775E-5,0.0015645720228256508
132,90.53348918059748,1.2148288563688604E-5,0.0015767203113893394
133,90.42257176452306,1.2182358289940705E-5,0.0015889026696792802
134,90.30396659284402,1.2233280298446733E-5,0.001601135949977727
135,90.20629923763559,1.1495152826123324E-5,0.0016126311028038503
136,90.10448855218927,1.1497452099017174E-5,0.0016241285549028674
137,90.00786275235818,1.1146830548203844E-5,0.0016352753854510713
138,89.91700323844168,1.1254634943680855E-5,0.001646530020394752
139,89.82430130903316,1.1483493923099286E-5,0.0016580135143178514
140,89.73218370990118,1.1451614487709027E-5,0.0016694651288055604
141,89.63634227277362,1.146451283349412E-5,0.0016809296416390544
142,89.54495772441715,1.1439332569359747E-5,0.0016923689742084141
143,89.44960989385713,1.1406772997876487E-5,0.0017037757472062906
144,89.34922714699454,1.2051548797452302E-5,0.0017158272960037428
145,89.23708690417166,1.2125544599977184E-5,0.00172795284060372
146,89.12421787886362,1.212444858833322E-5,0.0017400772891920531
147,89.0126573664727,1.2193527075683187E-5,0.0017522708162677363
148,88.90241691072934,1.2115504276636338E-5,0.0017643863205443727
149,88.78787696236095,1.2288421146823414E-5,0.001776674741691196
150,88.67753917251142,1.2194256390658923E-5,0.0017888689980818551
151,88.57113362506206,1.2105788028108393E-5,0.0018009747861099635
152,88.47603001353951,1.2047229340677464E-5,0.0018130220154506408
153,88.38584568987278,1.1751970628073174E-5,0.001824773986078714
154,88.29775673431064,1.178172370247006E-5,0.001836555709781184
155,88.20839744593522,1.1813618014882983E-5,0.001848369327796067
156,88.12027263687368,1.1779158255641414E-5,0.0018601484860517085
157,88.03503210178754,1.177065741764551E-5,0.001871919143469354
158,87.95263878702396,1.1436428126027057E-5,0.001883355571595381
159,87.86084162850982,1.1524336036765276E-5,0.0018948799076321462
160,87.76359410851174,1.1952187326620158E-5,0.0019068320949587663
161,87.66741481902396,1.1780430298726506E-5,0.0019186125252574928
162,87.57108031456461,1.1918360725471192E-5,0.001930530885982964
163,87.46845694087962,1.1872004330801853E-5,0.0019424028903137658
164,87.3636154614989,1.175444997327667E-5,0.0019541573402870427
165,87.25806130801726,1.1938999792649215E-5,0.001966096340079692
166,87.150598005186,1.2312666638640872E-5,0.001978409006718333
167,87.04208040535254,1.194485205892527E-5,0.0019903538587772583
168,86.93826804004489,1.2126897205152592E-5,0.002002480755982411
169,86.83333402006166,1.2213616266918672E-5,0.0020146943722493295
170,86.72917852436649,1.2320243540402597E-5,0.0020270146157897323
171,86.62296907006002,1.2508144430728151E-5,0.0020395227602204606
172,86.51840136341583,1.2442432744023951E-5,0.0020519651929644844
173,86.40959051293628,1.2605114570740208E-5,0.0020645703075352247
174,86.30171615383144,1.2608846152126812E-5,0.0020771791536873517
175,86.19406636598616,1.2515301156697893E-5,0.0020896944548440496
176,86.09026281047045,1.2738586923032975E-5,0.0021024330417670828
177,85.99145370832107,1.3067733158087851E-5,0.0021155007749251707
178,85.89252679937641,1.3081416715569536E-5,0.00212858219164074
179,85.7873813209836,1.3661637301104932E-5,0.002142243828941845
180,85.70631548225911,1.3658213326714893E-5,0.00215590204226856
181,85.62595330698981,1.365924866420216E-5,0.0021695612909327622
182,85.54498476354031,1.3672843646746823E-5,0.002183234134579509
183,85.46250855494353,1.3717651993873515E-5,0.0021969517865733828
184,85.37110168108231,1.4039708959943165E-5,0.002210991495533326
185,85.28120679246084,1.4144190544271137E-5,0.002225135686077597
186,85.18259834710045,1.4071183282966325E-5,0.0022392068693605632
187,85.08160796468059,1.3810537887960397E-5,0.0022530174072485235
188,84.98424026163856,1.3647483625589474E-5,0.002266664890874113
189,84.8772997385927,1.3810428749165769E-5,0.002280475319623279
190,84.77277975558422,1.3888522218953295E-5,0.0022943638418422324
191,84.66106734698873,1.4279002653309091E-5,0.0023086428444955417
192,84.54619700564034,1.4181113633947897E-5,0.0023228239581294897
193,84.43218389775926,1.4184918563826507E-5,0.0023370088766933163
194,84.3126749414513,1.4813719231174143E-5,0.0023518225959244903
195,84.19506912554972,1.4406993520735643E-5,0.0023662295894452258
196,84.0729909661163,1.4525488258975327E-5,0.002380755077704201
197,83.95689805975908,1.4135576815256118E-5,0.002394890654519457
198,83.8500733418786,1.3824430218618192E-5,0.002408715084738075
199,83.74365085694079,1.410999914909469E-5,0.0024228250838871698
200,83.63776502837294,1.3892764595370704E-5,0.0024367178484825404
201,83.53491091708608,1.4157676371855566E-5,0.002450875524854396
202,83.4359080110154,1.4271283020919734E-5,0.0024651468078753158
203,83.34133829870075,1.4359204628958332E-5,0.002479506012504274
204,83.24342440038481,1.4336747230269203E-5,0.002493842759734543
205,83.14484995844117,1.4223783457670934E-5,0.002508066543192214
206,83.04085162139276,1.4118106966803175E-5,0.002522184650159017
207,82.94630563174898,1.4231891832138368E-5,0.0025364165419911556
208,82.85079036938964,1.4157993309675437E-5,0.002550574535300831
209,82.76050424521158,1.428446161513528E-5,0.002564858996915966
210,82.67720805361795,1.4036905059377709E-5,0.0025788959019753437
211,82.59421630427549,1.380511267618493E-5,0.0025927010146515285
212,82.51774640261958,1.3983068266804652E-5,0.002606684082918333
213,82.43689231912751,1.401119578009423E-5,0.0026206952786984273
214,82.3554547676641,1.4117672291478547E-5,0.002634812950989906
215,82.27169249767844,1.3990050270500068E-5,0.002648803001260406
216,82.18166957568232,1.4181441602852317E-5,0.0026629844428632584
217,82.08534110116047,1.4224409467217467E-5,0.0026772088523304757
218,81.99104947008132,1.4171046872735635E-5,0.0026913798992032113
219,81.89103784584702,1.4286024989744322E-5,0.0027056659241929556
220,81.79219797415422,1.412107606109796E-5,0.0027197870002540537
221,81.68943707250173,1.387613754161E-5,0.0027336631377956637
222,81.58334548976919,1.3918836113470902E-5,0.0027475819739091346
223,81.47760865707136,1.3544241300390748E-5,0.002761126215209525
224,81.3748200653361,1.3293272964810321E-5,0.0027744194881743353
225,81.27050526415515,1.3229122060524392E-5,0.00278764861023486
226,81.1666373764943,1.3233596980407887E-5,0.0028008822072152677
227,81.06312348429248,1.3013304762587685E-5,0.0028138955119778554
228,80.96162347596434,1.3246768800860277E-5,0.0028271422807787158
229,80.85796404308091,1.3406315264850907E-5,0.0028405485960435665
230,80.75298491513577,1.3252573526188167E-5,0.0028538011695697545
231,80.64903206398904,1.3093611104751067E-5,0.0028668947806745055
232,80.53972732667435,1.309173445018893E-5,0.0028799865151246944
233,80.42073255044744,1.2845770948078287E-5,0.002892832286072773
234,80.29985527876488,1.2702561670100105E-5,0.002905534847742873
235,80.17994938484289,1.2504142591155005E-5,0.002918038990334028
236,80.06063611330069,1.2839310033691242E-5,0.002930878300367719
237,79.9441638335834,1.2853522931944832E-5,0.002943731823299664
238,79.82537955490095,1.2707945219471418E-5,0.0029564397685191354
239,79.70970554308741,1.2312474151375035E-5,0.0029687522426705103
240,79.59577410316135,1.211957890587412E-5,0.0029808718215763846
241,79.47385956222728,1.2425830621759828E-5,0.0029932976521981442
242,79.34481029966582,1.1935714965821102E-5,0.0030052333671639654
243,79.21488422705065,1.1981887214499063E-5,0.0030172152543784646
244,79.08414214823686,1.2254317473908704E-5,0.0030294695718523735
245,78.95006382800818,1.23224757958412E-5,0.0030417920476482146
246,78.81852667343347,1.1920205880466402E-5,0.0030537122535286808
247,78.6918391320924,1.183597017792623E-5,0.003065548223706607
248,78.55905717438225,1.2145998324313864E-5,0.0030776942220309207
249,78.42281478468122,1.2334381077057294E-5,0.003090028603107978
250,78.29165319109262,1.2413354944059868E-5,0.003102441958052038
251,78.16383381775759,1.2230339086063705E-5,0.0031146722971381016
252,78.0346440491122,1.2358526407640047E-5,0.003127030823545742
253,77.9012411037054,1.2171426107724169E-5,0.003139202249653466
254,77.7707557535194,1.2019642627820665E-5,0.0031512218922812867
255,77.6425538956226,1.1884163141084153E-5,0.003163106055422371
256,77.5041839830186,1.1959107668810859E-5,0.0031750651630911815
257,77.36144295737832,1.1849812182088288E-5,0.00318691497527327
258,77.22564367369857,1.1629492042893429E-5,0.0031985444673161634
259,77.09400314416293,1.1194747148536585E-5,0.0032097392144647
260,76.9619803089033,1.1521712983828732E-5,0.0032212609274485287
261,76.82831198952674,1.1282770913382306E-5,0.003232543698361911
262,76.69149325241926,1.1440231184580442E-5,0.003243983929546491
263,76.55210909839238,1.1618122872304724E-5,0.003255602052418796
264,76.41443568733897,1.1664792574124853E-5,0.003267266844992921
265,76.27506821830994,1.1545674641490524E-5,0.0032788125196344118
266,76.13327193175853,1.1779073851571062E-5,0.003290591593485983
267,75.98388960514623,1.2324251544054677E-5,0.0033029158450300377
268,75.84044549222017,1.2210069803902032E-5,0.00331512591483394
269,75.68343561492934,1.233646701939765E-5,0.0033274623818533374
270,75.5151887463327,1.2248648459163616E-5,0.003339711030312501
271,75.34425066625664,1.214655482594344E-5,0.003351857585138445
272,75.1729711374075,1.2244682630639086E-5,0.0033641022677690837
273,75.00930444080473,1.2274717406169962E-5,0.003376376985175254
274,74.83975558055886,1.2247051064699456E-5,0.003388624036239953
275,74.67152792725723,1.2199699715454099E-5,0.003400823735955407
276,74.49509237070276,1.2067658869700372E-5,0.0034128913948251074
277,74.32518035548566,1.2417210445489546E-5,0.003425308605270597
278,74.15393539483792,1.2742676555246294E-5,0.003438051281825843
279,73.98086013697407,1.2960857717632138E-5,0.003451012139543475
280,73.79512343606116,1.2980496220867835E-5,0.003463992635764343
281,73.60828777327022,1.3127566817236523E-5,0.0034771202025815793
282,73.41628740318676,1.331402927822529E-5,0.0034904342318598045
283,73.22978123225704,1.3163637248984691E-5,0.003503597869108789
284,73.03154349960434,1.3423691392276667E-5,0.0035170215605010656
285,72.85503074409968,1.3888606885112075E-5,0.003530910167386178
286,72.66838524019123,1.386147219258046E-5,0.0035447716395787584
287,72.49353049682752,1.3379678977660657E-5,0.003558151318556419
288,72.3171322445726,1.3083824321413691E-5,0.0035712351428778327
289,72.17322453345089,1.3122472958548943E-5,0.0035843576158363817
290,72.04052057710649,1.3129666539729813E-5,0.0035974872823761115
291,71.9100969194282,1.362515057394122E-5,0.0036111124329500526
292,71.78458896264488,1.3531616990639716E-5,0.0036246440499406924
293,71.65797694848766,1.3322293021423195E-5,0.0036379663429621156
294,71.52534389359192,1.3532686501371744E-5,0.0036514990294634875
295,71.39326881582305,1.3441553415727941E-5,0.0036649405828792156
296,71.256149623622,1.3023408290575086E-5,0.0036779639911697906
297,71.11317496016628,1.3715187611780386E-5,0.003691679178781571
298,70.97459275634462,1.359316270776572E-5,0.0037052723414893367
299,70.83889424169986,1.3423302928848303E-5,0.003718695644418185
300,70.7004089122344,1.3650606433194629E-5,0.0037323462508513797
301,70.55861818299532,1.3617437329048762E-5,0.0037459636881804286
302,70.42333852629909,1.3422582148519169E-5,0.0037593862703289476
303,70.28932390638452,1.2893604769777787E-5,0.003772279875098725
304,70.15474095218431,1.2977390727487647E-5,0.003785257265826213
305,70.02375909034761,1.2915084300368917E-5,0.0037981723501265816
306,69.8871126053344,1.3279011405456314E-5,0.003811451361532038
307,69.75472824873826,1.3548492029083805E-5,0.0038249998535611215
