#t,ESS,tempDiff,temp
0,200.00000000000065,0.0,0.0
1,199.9998320449086,6.085841681873757E-6,6.085841681873757E-6
2,199.9993266129253,6.070023487345207E-6,1.2155865169218964E-5
3,199.9984859570492,6.0902253399357125E-6,1.8246090509154677E-5
4,199.99730668578405,6.086938797405148E-6,2.4333029306559823E-5
5,199.99576260049054,6.217731985357157E-6,3.055076129191698E-5
6,199.9939338558673,6.094428321177018E-6,3.6645189613094E-5
7,199.9917826908311,6.090534025294856E-6,4.273572363838885E-5
8,199.98933190454008,6.024748676660575E-6,4.8760472315049424E-5
9,199.98656876489696,6.06269371814744E-6,5.482316603319686E-5
10,199.98350499880235,6.054710600898349E-6,6.087787663409521E-5
11,199.9800530531916,6.007833477898611E-6,6.688571011199382E-5
12,199.9762666114569,6.050465760450515E-6,7.293617587244433E-5
13,199.97222302854203,6.04724349652996E-6,7.898341936897429E-5
14,199.96785824055434,6.0120918337671034E-6,8.49955112027414E-5
15,199.96336703005224,5.969890985119083E-6,9.096540218786048E-5
16,199.95863168057937,5.9545473533686495E-6,9.691994954122913E-5
17,199.95347038295193,6.0491364447447324E-6,1.0296908598597386E-4
18,199.9481461144755,5.892955912674857E-6,1.0886204189864871E-4
19,199.94255913375056,5.966031269695873E-6,1.1482807316834459E-4
20,199.93675262092313,5.9750111674590155E-6,1.208030843358036E-4
21,199.93049910351672,6.011121093277639E-6,1.2681420542908124E-4
22,199.9239329403105,6.02178420727199E-6,1.3283598963635324E-4
23,199.9169437238671,6.052616647448277E-6,1.3888860628380153E-4
24,199.90981026222047,5.970881014228091E-6,1.4485948729802962E-4
25,199.90231778042588,5.923076759601073E-6,1.507825640576307E-4
26,199.8945761641888,5.891602769290174E-6,1.566741668269209E-4
27,199.88657000406158,5.8805508025505605E-6,1.6255471762947145E-4
28,199.87826918125518,6.021887157042113E-6,1.6857660478651357E-4
29,199.86978330539043,5.9614767783387715E-6,1.7453808156485235E-4
30,199.86115868312118,5.949649509240732E-6,1.804877310740931E-4
31,199.85246075235455,5.8283586271642015E-6,1.8631608970125728E-4
32,199.8433074033054,5.852951185699755E-6,1.9216904088695702E-4
33,199.83376373264048,5.950346399189985E-6,1.9811938728614702E-4
34,199.82384890135407,5.927081710404389E-6,2.040464689965514E-4
35,199.81352630714636,5.913876895593667E-6,2.099603458921451E-4
36,199.80309864151042,6.019615018855392E-6,2.1597996091100047E-4
37,199.79211493316888,6.0078513220732835E-6,2.2198781223307376E-4
38,199.7806995557033,6.146597720194902E-6,2.2813440995326866E-4
39,199.7692426342166,5.989351964929206E-6,2.3412376191819787E-4
40,199.75737596175773,6.036639829919973E-6,2.4016040174811785E-4
41,199.74558885277943,5.977834890643269E-6,2.461382366387611E-4
42,199.73308445991591,6.067457957526591E-6,2.5220569459628774E-4
43,199.7202267213826,6.049849568608009E-6,2.5825554416489575E-4
44,199.7070539673491,6.099458174028082E-6,2.6435500233892384E-4
45,199.69306224446643,6.2081535065776695E-6,2.705631558455015E-4
46,199.67839785354747,6.28458046592471E-6,2.768477363114262E-4
47,199.66368498435946,6.192464662176552E-6,2.8304020097360275E-4
48,199.64861808811182,6.0870882928501585E-6,2.891272892664529E-4
49,199.63391983541615,5.961269635163069E-6,2.9508855890161595E-4
50,199.61901233087679,5.9515952924143086E-6,3.0104015419403024E-4
51,199.60305980933296,6.092071559946741E-6,3.07132225753977E-4
52,199.5869456633515,6.143204090960281E-6,3.1327542984493727E-4
53,199.57050514836223,6.19044170074451E-6,3.1946587154568177E-4
54,199.55313851760747,6.320179836625204E-6,3.25786051382307E-4
55,199.53569131587594,6.181650686014893E-6,3.319677020683219E-4
56,199.51757334212405,6.262907825890433E-6,3.3823060989421236E-4
57,199.49935337551403,6.2548561573660225E-6,3.4448546605157836E-4
58,199.48105553646405,6.23518023518736E-6,3.507206462867657E-4
59,199.4634055009419,6.101260022985697E-6,3.5682190630975137E-4
60,199.44552410722312,6.132985014226553E-6,3.629548913239779E-4
61,199.42746859303386,6.27646489308774E-6,3.6923135621706564E-4
62,199.40936626606447,6.3067245109407E-6,3.7553808072800633E-4
63,199.39136998003443,6.1601889466116275E-6,3.8169826967461795E-4
64,199.37334570655955,6.067795228694049E-6,3.87766064903312E-4
65,199.35432533180497,6.220907942903179E-6,3.939869728462152E-4
66,199.33498862634337,6.2574317746232586E-6,4.002444046208384E-4
67,199.3155695182702,6.31643332014299E-6,4.065608379409814E-4
68,199.2961382523919,6.24835639116634E-6,4.1280919433214774E-4
69,199.27702931774516,6.152673590558081E-6,4.1896186792270585E-4
70,199.2577354797533,6.1138738679861244E-6,4.25075741790692E-4
71,199.2382391140601,6.204390208783277E-6,4.3128013199947524E-4
72,199.21849003382582,6.239703860133653E-6,4.375198358596089E-4
73,199.19895827922042,6.119576833692658E-6,4.4363941269330153E-4
74,199.17850844147003,6.127797200465531E-6,4.497672098937671E-4
75,199.15709863685842,6.318790925639471E-6,4.560860008194066E-4
76,199.13587680729754,6.289382741844616E-6,4.623753835612512E-4
77,199.1144082045195,6.222352006790049E-6,4.685977355680412E-4
78,199.092316836954,6.344922569961269E-6,4.749426581380025E-4
79,199.07075997620797,6.272121507363479E-6,4.8121477964536594E-4
80,199.048444116466,6.3914489017461816E-6,4.8760622854711214E-4
81,199.02499165134833,6.468187185680457E-6,4.940744157327926E-4
82,199.00159818230964,6.4786430212929025E-6,5.005530587540855E-4
83,198.97779184266253,6.452242855973893E-6,5.070053016100595E-4
84,198.95370091272827,6.448150530905389E-6,5.134534521409648E-4
85,198.92935475106714,6.39549988949425E-6,5.198489520304591E-4
86,198.9055238830924,6.290431510760673E-6,5.261393835412197E-4
87,198.88186387274393,6.269142136330665E-6,5.324085256775504E-4
88,198.8590340897728,6.189970044696132E-6,5.385984957222465E-4
89,198.8359867530317,6.067234577024235E-6,5.446657302992708E-4
90,198.81302623343507,6.053498996367583E-6,5.507192292956383E-4
91,198.78944054108965,6.120037841706359E-6,5.568392671373446E-4
92,198.76549834340378,6.156875122052184E-6,5.629961422593968E-4
93,198.74066433559975,6.366076217053055E-6,5.693622184764498E-4
94,198.7155099318527,6.361489994670677E-6,5.757237084711205E-4
95,198.69072777784436,6.356919146014246E-6,5.820806276171348E-4
96,198.66730716977023,6.179971162954022E-6,5.882605987800888E-4
97,198.64381744708484,6.176781574327053E-6,5.944373803544159E-4
98,198.61994815120602,6.19885948331713E-6,6.00636239837733E-4
99,198.5949545368594,6.2487891463753885E-6,6.068850289841083E-4
100,198.56963755430058,6.374754244659037E-6,6.132597832287673E-4
101,198.5444587053858,6.365420012851917E-6,6.196252032416192E-4
102,198.51939059867973,6.244918590262202E-6,6.258701218318814E-4
103,198.49403997353082,6.218089435782003E-6,6.320882112676635E-4
104,198.46802471055193,6.223590625420914E-6,6.383118018930844E-4
105,198.44169724288236,6.149903988905246E-6,6.444617058819896E-4
106,198.4158228420166,6.137500393033001E-6,6.505992062750226E-4
107,198.38932860833833,6.0630072392872356E-6,6.566622135143099E-4
108,198.36269893886885,6.0506059664733855E-6,6.627128194807832E-4
109,198.3354871133147,6.074104371257961E-6,6.687869238520412E-4
110,198.30742155450923,6.196089681113379E-6,6.749830135331546E-4
111,198.2792366291418,6.256769507353911E-6,6.812397830405086E-4
112,198.25067929622853,6.3008913246342705E-6,6.875406743651429E-4
113,198.2231041554141,6.287326348156323E-6,6.938280007132992E-4
114,198.1956137176124,6.30151708865326E-6,7.001295178019524E-4
115,198.16765920459878,6.361228757851723E-6,7.064907465598042E-4
116,198.1392021634949,6.2955727860346255E-6,7.127863193458388E-4
117,198.11103670063105,6.1879063268483E-6,7.189742256726871E-4
118,198.0826894141082,6.1780478860279125E-6,7.25152273558715E-4
119,198.05385004495116,6.248975423517981E-6,7.31401248982233E-4
120,198.025380652511,6.2511535483789016E-6,7.376524025306118E-4
121,197.9967888894464,6.152927502983767E-6,7.438053300335956E-4
122,197.96784796435531,6.098239135027032E-6,7.499035691686226E-4
123,197.93858985256347,6.087386280825968E-6,7.559909554494486E-4
124,197.90885980022773,6.208277030517147E-6,7.621992324799658E-4
125,197.87882464141168,6.429233038663356E-6,7.686284655186291E-4
126,197.84886815619254,6.394040909808191E-6,7.750225064284373E-4
127,197.8201303036141,6.299398247252705E-6,7.8132190467569E-4
128,197.79148477638367,6.235726720716321E-6,7.875576313964063E-4
129,197.7621999349546,6.197029085540597E-6,7.937546604819469E-4
130,197.73317016069473,6.058058839313659E-6,7.998127193212605E-4
131,197.70513680377098,6.056639787749782E-6,8.058693591090103E-4
132,197.67686242253862,6.018921392118687E-6,8.11888280501129E-4
133,197.64908978361467,5.9186841615967044E-6,8.178069646627257E-4
134,197.6217757767207,5.980319717881833E-6,8.237872843806076E-4
135,197.5942482132639,6.058714655727814E-6,8.298459990363354E-4
136,197.56702774675665,5.998018240362413E-6,8.358440172766978E-4
137,197.53968860146315,5.941907608827169E-6,8.41785924885525E-4
138,197.51259210201837,5.947681863400804E-6,8.477336067489258E-4
139,197.48499035816684,5.964341225093518E-6,8.536979479740193E-4
140,197.4571590846337,5.972474744168809E-6,8.596704227181881E-4
141,197.42868116361308,6.015187216088489E-6,8.656856099342766E-4
142,197.39940109129395,6.0552780460944125E-6,8.717408879803711E-4
143,197.36979916379494,5.984268654274539E-6,8.777251566346456E-4
144,197.34145798108227,5.9251061564378865E-6,8.836502627910834E-4
145,197.3132953593029,5.8835105605890494E-6,8.895337733516725E-4
146,197.28503547603847,6.008348453306811E-6,8.955421218049793E-4
147,197.2555157079546,6.145583560436735E-6,9.016877053654161E-4
148,197.22579834185902,6.069159008946774E-6,9.077568643743629E-4
149,197.19699053879998,6.155014488496649E-6,9.139118788628595E-4
150,197.16750035872826,6.172229506270237E-6,9.200841083691298E-4
151,197.13900186195386,6.04480768751156E-6,9.261289160566414E-4
152,197.11002184767062,6.079808871994957E-6,9.322087249286363E-4
153,197.0794635358876,6.1938377762294414E-6,9.384025627048657E-4
154,197.0481671033351,6.249372084800268E-6,9.44651934789666E-4
155,197.01628334410117,6.257154123417511E-6,9.509090889130836E-4
156,196.98485749125678,6.254045320597283E-6,9.571631342336808E-4
157,196.95317890283098,6.150438513862984E-6,9.633135727475438E-4
158,196.92148466771312,6.117834244179605E-6,9.694314069917234E-4
159,196.88904123138403,6.180634578533643E-6,9.75612041570257E-4
160,196.85678672436353,6.191995221237359E-6,9.818040367914945E-4
161,196.82526170895284,6.1004375629899585E-6,9.879044743544845E-4
162,196.79400193768208,6.125339850932531E-6,9.94029814205417E-4
163,196.76227585806262,6.158964668651457E-6,0.0010001887788740685
164,196.73051401653754,6.205075731433661E-6,0.0010063938546055022
165,196.69584817014677,6.474599966484721E-6,0.001012868454571987
166,196.6602232164686,6.581965729044704E-6,0.0010194504203010317
167,196.62424107683674,6.574979410283517E-6,0.0010260253997113151
168,196.5867128794559,6.569765513713892E-6,0.001032595165225029
169,196.5496433639501,6.45996960476991E-6,0.001039055134829799
170,196.5136681463364,6.353289400350304E-6,0.0010454084242301491
171,196.4782731395052,6.294781718157017E-6,0.0010517032059483061
172,196.44262059234396,6.262343560090021E-6,0.0010579655495083962
173,196.40743024184758,6.235120163136929E-6,0.001064200669671533
174,196.37285027350626,6.141096881231653E-6,0.0010703417665527647
175,196.3367536448122,6.1941403719938565E-6,0.0010765359069247586
176,196.30063024559493,6.233818404172097E-6,0.0010827697253289307
177,196.26373692891516,6.343118216491792E-6,0.0010891128435454225
178,196.22716610446554,6.261278968285749E-6,0.0010953741225137082
179,196.1923129459999,6.196767709637861E-6,0.001101570890223346
180,196.15856551444418,6.155582105499028E-6,0.0011077264723288452
181,196.12318542410947,6.220020301006378E-6,0.0011139464926298516
182,196.08851965618513,6.226539525869355E-6,0.001120173032155721
183,196.0547492802592,6.172696541873155E-6,0.0011263457286975942
184,196.02180657306627,6.233306374449321E-6,0.0011325790350720435
185,195.99007812523809,6.061924406478023E-6,0.0011386409594785214
186,195.95946620876074,5.988908357808047E-6,0.0011446298678363294
187,195.92817940909194,6.004117587616555E-6,0.0011506339854239459
188,195.89564701529105,6.019772968622879E-6,0.0011566537583925687
189,195.86253690045646,5.998884677135897E-6,0.0011626526430697046
190,195.8278237586823,6.030404181443421E-6,0.001168683047251148
191,195.79185596824556,6.076321974410681E-6,0.0011747593692255588
192,195.755875261152,6.11696167521754E-6,0.0011808763309007764
193,195.71877720208772,6.121289397434553E-6,0.001186997620298211
194,195.68141254578853,6.077799534225791E-6,0.0011930754198324369
195,195.64556443195843,6.061019181683146E-6,0.00119913643901412
196,195.60972982189966,6.0118459946896444E-6,0.0012051482850088096
197,195.57392309034176,5.974373695435763E-6,0.0012111226587042453
198,195.53975204913147,5.818146924135672E-6,0.001216940805628381
199,195.50606860081666,5.842190784215518E-6,0.0012227829964125965
200,195.47222666894262,5.881837018000646E-6,0.001228664833430597
201,195.44063973191527,5.830126598998761E-6,0.0012344949600295958
202,195.40912159430513,5.775131648977525E-6,0.0012402700916785733
203,195.37788408130552,5.675915687094185E-6,0.0012459460073656675
204,195.345711002944,5.667132872271213E-6,0.0012516131402379386
205,195.31390362188395,5.5738770980342776E-6,0.0012571870173359728
206,195.2815690909739,5.518676535205082E-6,0.001262705693871178
207,195.24958354654908,5.4386035124837455E-6,0.0012681442973836617
208,195.21735161642525,5.503483614148321E-6,0.00127364778099781
209,195.1841555523813,5.545109933066055E-6,0.0012791928909308761
210,195.15053359462607,5.541990681921026E-6,0.0012847348816127971
211,195.11641414228757,5.522370523649079E-6,0.0012902572521364462
212,195.08152864794948,5.508184070264985E-6,0.001295765436206711
213,195.04745301470464,5.3935659048140015E-6,0.001301159002111525
214,195.0142038279874,5.4434994855807175E-6,0.0013066025015971057
215,194.9817425778801,5.380355080734892E-6,0.0013119828566778406
216,194.94921589216304,5.396730491303187E-6,0.0013173795871691439
217,194.91673492975318,5.353075495394128E-6,0.001322732662664538
218,194.88466945206855,5.298844692532672E-6,0.0013280315073570706
219,194.85234204993986,5.280021291311006E-6,0.0013333115286483816
220,194.8209694885488,5.285794784717729E-6,0.0013385973234330993
221,194.78980253507459,5.162821415668028E-6,0.0013437601448487674
222,194.75842513158796,5.108954276035176E-6,0.0013488690991248025
223,194.7263317269867,5.11014681904287E-6,0.0013539792459438453
224,194.69502209209082,5.09619965751224E-6,0.0013590754456013576
225,194.6637403604717,5.111203110573722E-6,0.0013641866487119313
226,194.63294877994792,5.172535898773896E-6,0.001369359184610705
227,194.60099749447397,5.224768561943427E-6,0.0013745839531726484
228,194.5684592412748,5.336205774886513E-6,0.001379920158947535
229,194.5361683813327,5.412488509980414E-6,0.0013853326474575155
230,194.50414196387686,5.340186770259976E-6,0.0013906728342277755
231,194.47101536769043,5.301573859639531E-6,0.0013959744080874151
232,194.43762961038854,5.298983874607995E-6,0.0014012733919620231
233,194.40338850357705,5.316264672032052E-6,0.0014065896566340553
234,194.37072750315048,5.2538009869952014E-6,0.0014118434576210505
235,194.337114206915,5.28370592554671E-6,0.0014171271635465973
236,194.30399863901633,5.3422306939970125E-6,0.0014224693942405944
237,194.27154282710725,5.381512503028806E-6,0.0014278509067436232
238,194.23894192077907,5.442803953271226E-6,0.0014332937106968943
239,194.20515311282014,5.397897419934102E-6,0.0014386916081168283
240,194.17126671586425,5.386121863990475E-6,0.0014440777299808188
241,194.13670457248483,5.384394655737959E-6,0.0014494621246365568
242,194.10110879499166,5.62536790481636E-6,0.0014550874925413732
243,194.06464236195885,5.589458252466123E-6,0.0014606769507938394
244,194.0286102789857,5.666386535209442E-6,0.001466343337329049
245,193.9938251235335,5.647877071295224E-6,0.0014719912144003442
246,193.95823911705565,5.709864427579318E-6,0.0014777010788279235
247,193.92199915707707,5.6896505869432364E-6,0.0014833907294148666
248,193.88600893801302,5.6014125017173E-6,0.001488992141916584
249,193.8492236933993,5.623982561694716E-6,0.0014946161244782786
250,193.81319273459354,5.55747251897374E-6,0.0015001735969972525
251,193.77649449260608,5.61516551414953E-6,0.001505788762511402
252,193.7380655730515,5.742878342479689E-6,0.0015115316408538817
253,193.6996768501174,5.737466976647812E-6,0.0015172691078305296
254,193.6610297033008,5.77268161961235E-6,0.001523041789450142
255,193.62391417411843,5.681333357092619E-6,0.0015287231228072345
256,193.5861326792839,5.681566495837434E-6,0.001534404689303072
257,193.54789926531188,5.6183895660410285E-6,0.001540023078869113
258,193.5092246984435,5.513569027067819E-6,0.0015455366478961808
259,193.4700360691727,5.6572741194472764E-6,0.001551193922015628
260,193.4305490949375,5.6776950683543395E-6,0.0015568716170839825
261,193.39208817534552,5.648267168358649E-6,0.0015625198842523411
262,193.35438984416683,5.622014953293223E-6,0.0015681418992056343
263,193.31616325963088,5.703151381633519E-6,0.0015738450505872678
264,193.2790852709576,5.7014508404420436E-6,0.00157954650142771
265,193.24081355139978,5.673767676278487E-6,0.0015852202691039885
266,193.20125022368816,5.6455849904808265E-6,0.0015908658540944693
267,193.16221249959418,5.669797118124172E-6,0.0015965356512125935
268,193.1252417352523,5.533244888202223E-6,0.0016020688961007957
269,193.0881224237988,5.4374994649674215E-6,0.0016075063955657632
270,193.05045376018901,5.587789985054149E-6,0.0016130941855508174
271,193.0110796105155,5.588901680411003E-6,0.0016186830872312284
272,192.97188765999016,5.607131080224194E-6,0.0016242902183114527
273,192.93472241200578,5.5890616840651156E-6,0.0016298792799955178
274,192.8972493761633,5.623202936702291E-6,0.00163550248293222
275,192.86062403758584,5.664317995107219E-6,0.0016411668009273274
276,192.82338188733692,5.684529922711464E-6,0.001646851330850039
277,192.7870958661554,5.5815368280832456E-6,0.0016524328676781222
278,192.75039086461038,5.601909412670911E-6,0.001658034777090793
279,192.7157922867434,5.5818583037602035E-6,0.0016636166353945533
280,192.68066370962708,5.621602052670432E-6,0.0016692382374472237
281,192.64511949335696,5.59949776024768E-6,0.0016748377352074715
282,192.60993088644898,5.603097224783875E-6,0.0016804408324322553
283,192.57409711019488,5.59094458235726E-6,0.0016860317770146125
284,192.5391032437392,5.609219446757814E-6,0.0016916409964613703
285,192.50633794493754,5.568819493719386E-6,0.0016972098159550898
286,192.47345681820545,5.681298768963726E-6,0.0017028911147240536
287,192.44235773224975,5.641025833582295E-6,0.0017085321405576359
288,192.4107802202573,5.598613769632915E-6,0.0017141307543272687
289,192.38006073728238,5.574032793181857E-6,0.0017197047871204507
290,192.3492182941938,5.525632345237803E-6,0.0017252304194656884
291,192.3170243137631,5.500045623617032E-6,0.0017307304650893054
292,192.28706958338432,5.464629933642977E-6,0.0017361950950229483
293,192.25707599533874,5.504326039059711E-6,0.001741699421062008
294,192.22818469375355,5.4313896098719875E-6,0.0017471308106718798
295,192.1984119058129,5.453449371804299E-6,0.0017525842600436842
296,192.1677163261991,5.4834334282279734E-6,0.0017580676934719121
297,192.13568271351986,5.461279096246034E-6,0.0017635289725681583
298,192.10289281210788,5.550332974146202E-6,0.0017690793055423046
299,192.06911333529916,5.401507248902095E-6,0.0017744808127912067
300,192.0357296135011,5.360976899536697E-6,0.0017798417896907435
301,192.0004888783735,5.343606271635533E-6,0.0017851853959623789
302,191.96491805976245,5.424714036181878E-6,0.0017906101099985608
303,191.93071215290152,5.398672067129101E-6,0.00179600878206569
304,191.8968672317432,5.3614778384904665E-6,0.0018013702599041805
305,191.86290790212308,5.302378245465704E-6,0.0018066726381496462
306,191.82863292474323,5.334888310235383E-6,0.0018120075264598816
307,191.79535796959846,5.38048782171609E-6,0.0018173880142815977
