#t,ESS,tempDiff,temp
0,999.9999999999848,0.0,0.0
1,999.989999999993,1.859405739789488E-5,1.859405739789488E-5
2,999.9602003088872,1.8544488879394555E-5,3.713854627728943E-5
3,999.9108077312508,1.859620059762146E-5,5.5734746874910895E-5
4,999.8419793953525,1.8537619589486293E-5,7.42723664643972E-5
5,999.7539819994686,1.8587053639631064E-5,9.285942010402827E-5
6,999.6468138458052,1.860399916049929E-5,1.1146341926452756E-4
7,999.5207028999871,1.862642545664626E-5,1.3008984472117382E-4
8,999.3757927842988,1.8736265599371765E-5,1.4882611032054557E-4
9,999.2125185930043,1.880095501266224E-5,1.676270653332078E-4
10,999.0309721874446,1.8804067099111716E-5,1.8643113243231954E-4
11,998.8308011734306,1.8804049111772356E-5,2.052351815440919E-4
12,998.6129858849051,1.8806614094299106E-5,2.24041795638391E-4
13,998.3766869882712,1.880384384436906E-5,2.4284563948276006E-4
14,998.1235178292696,1.876789840103591E-5,2.61613537883796E-4
15,997.8535678514173,1.878021796785341E-5,2.803937558516494E-4
16,997.5659293481198,1.8944669818152732E-5,2.993384256698021E-4
17,997.2619873592064,1.8944463830269234E-5,3.1828288950007134E-4
18,996.9412862765669,1.8887434175300442E-5,3.371703236753718E-4
19,996.6038370668911,1.9022158655133717E-5,3.561924823305055E-4
20,996.2491340401972,1.9064902391933817E-5,3.7525738472243933E-4
21,995.8783015989297,1.9095254163371555E-5,3.943526388858109E-4
22,995.4929154961245,1.922667219296206E-5,4.1357931107877295E-4
23,995.0926678821429,1.913889075327775E-5,4.327182018320507E-4
24,994.679241402624,1.917063568590745E-5,4.5188883751795815E-4
25,994.249944111664,1.9151330000801855E-5,4.7104016751876003E-4
26,993.8062376073996,1.9065920344470767E-5,4.901060878632308E-4
27,993.3480461296678,1.9001012413307385E-5,5.091071002765382E-4
28,992.87299988233,1.9078684307992056E-5,5.281857845845303E-4
29,992.3819803839568,1.9014560948599546E-5,5.472003455331299E-4
30,991.8740054998717,1.9007595673008582E-5,5.662079412061384E-4
31,991.3516477723304,1.9078439875822235E-5,5.852863810819607E-4
32,990.8140370407814,1.9126226373361543E-5,6.044126074553222E-4
33,990.2635423095942,1.916666118519325E-5,6.235792686405154E-4
34,989.695784788099,1.916909598020406E-5,6.427483646207194E-4
35,989.1141086182018,1.9037657519617425E-5,6.617860221403368E-4
36,988.5177757525553,1.910816050188438E-5,6.808941826422211E-4
37,987.9072870483219,1.9160510112047712E-5,7.000546927542689E-4
38,987.2808693420409,1.9050006698094508E-5,7.191046994523634E-4
39,986.6405480323474,1.9124010220067175E-5,7.382287096724306E-4
40,985.9942920828178,1.9161011507552603E-5,7.573897211799832E-4
41,985.3342929125398,1.9014442296704044E-5,7.764041634766872E-4
42,984.6655870763625,1.8889201087793818E-5,7.95293364564481E-4
43,983.9844826831297,1.8838653755484496E-5,8.141320183199655E-4
44,983.2895981095209,1.8836436356760147E-5,8.329684546767256E-4
45,982.5816226669232,1.890065287963732E-5,8.51869107556363E-4
46,981.8659770522085,1.8768092911067285E-5,8.706372004674303E-4
47,981.141076052889,1.880164668817365E-5,8.894388471556039E-4
48,980.4045949828374,1.890705132544935E-5,9.083458984810533E-4
49,979.657539859649,1.88095512608896E-5,9.271554497419429E-4
50,978.8995057827938,1.8807771080743325E-5,9.459632208226863E-4
51,978.1292715831228,1.8958694106612136E-5,9.649219149292984E-4
52,977.3433048890184,1.8791514858892184E-5,9.837134297881907E-4
53,976.5442833908794,1.882093871584231E-5,0.001002534368504033
54,975.7338965890171,1.8728828437302896E-5,0.001021263196941336
55,974.9142524075979,1.8731676581143457E-5,0.0010399948735224794
56,974.0874851782922,1.8718035990353512E-5,0.001058712909512833
57,973.2500827950123,1.892187327469821E-5,0.0010776347827875312
58,972.3977326774533,1.897124817374198E-5,0.0010966060309612732
59,971.5410894034547,1.9104390005879244E-5,0.0011157104209671524
60,970.6739413791472,1.929975163328597E-5,0.0011350101726004384
61,969.796714742255,1.928333144752111E-5,0.0011542935040479594
62,968.9144629355901,1.930561157632312E-5,0.0011735991156242825
63,968.0172796146792,1.9480991129954093E-5,0.0011930801067542365
64,967.1030521927764,1.943534317143472E-5,0.0012125154499256713
65,966.1768326614015,1.9553108182613645E-5,0.001232068558108285
66,965.2368207783849,1.968773030979518E-5,0.0012517562884180804
67,964.2883020366069,1.9519422322562837E-5,0.001271275710740643
68,963.3287469105805,1.9499710532383243E-5,0.0012907754212730263
69,962.3593027015677,1.9439525259894175E-5,0.0013102149465329205
70,961.3810726532047,1.963465474809239E-5,0.001329849601281013
71,960.3947553210522,1.9601391759166436E-5,0.0013494509930401795
72,959.3963182106272,1.963871177024479E-5,0.0013690897048104242
73,958.3880248652874,1.9677892982029912E-5,0.0013887675977924542
74,957.3754980901535,1.972489947597225E-5,0.0014084924972684264
75,956.3566125917143,1.9722439040454025E-5,0.0014282149363088804
76,955.3273681612961,1.968583656429729E-5,0.0014479007728731776
77,954.2885241668484,1.971286072981079E-5,0.0014676136336029884
78,953.2384566258318,1.957561288144811E-5,0.0014871892464844365
79,952.1746670528086,1.9564307884832803E-5,0.0015067535543692692
80,951.0995303032636,1.9609005201086003E-5,0.0015263625595703552
81,950.0160894612953,1.9490259613677816E-5,0.001545852819184033
82,948.9251829204292,1.9437335730281585E-5,0.0015652901549143147
83,947.8223539670124,1.9388937801692884E-5,0.0015846790927160075
84,946.7146403182381,1.926665384066563E-5,0.001603945746556673
85,945.5989602119988,1.9319254923471637E-5,0.0016232650014801448
86,944.4761131663004,1.9302475393466884E-5,0.0016425674768736117
87,943.3513114968109,1.9143809362612984E-5,0.0016617112862362248
88,942.2154178249901,1.90991025201648E-5,0.0016808103887563895
89,941.0641985387193,1.9076879102924508E-5,0.0016998872678593141
90,939.9084834458835,1.9245190616036853E-5,0.001719132458475351
91,938.7472076097717,1.916587907131579E-5,0.0017382983375466667
92,937.5756257696014,1.911730450608445E-5,0.0017574156420527513
93,936.3962475822653,1.9090643599462328E-5,0.0017765062856522137
94,935.2071411326441,1.922303424807177E-5,0.0017957293199002853
95,934.0112252261446,1.918824668765121E-5,0.0018149175665879366
96,932.7990733105698,1.9168392293292306E-5,0.0018340859588812288
97,931.5831843349004,1.90902702336845E-5,0.0018531762291149132
98,930.3535404755349,1.9130813468550734E-5,0.001872307042583464
99,929.1211982280591,1.9166356377151835E-5,0.001891473398960616
100,927.8853172818405,1.8988360311109547E-5,0.0019104617592717254
101,926.634997205592,1.881873107161392E-5,0.0019292804903433393
102,925.3747533045539,1.8755454730779696E-5,0.001948035945074119
103,924.1103749743163,1.8662135470227716E-5,0.0019666980805443466
104,922.8399272851021,1.858980500082989E-5,0.0019852878855451763
105,921.5723570129758,1.850692564585973E-5,0.002003794811191036
106,920.3036702663526,1.8388225496308533E-5,0.0020221830366873444
107,919.033992189671,1.847839874578852E-5,0.002040661435433133
108,917.7525666438299,1.8428089116951327E-5,0.0020590895245500844
109,916.4623308005517,1.837346463936008E-5,0.0020774629891894443
110,915.1534459796686,1.812877054149171E-5,0.002095591759730936
111,913.8394864531299,1.810033413154767E-5,0.0021136920938624837
112,912.5250402921672,1.806019475221032E-5,0.002131752288614694
113,911.1971826026257,1.814739419860003E-5,0.002149899682813294
114,909.8576592717108,1.8137534752291563E-5,0.0021680372175655856
115,908.5019089929315,1.8034920617511275E-5,0.0021860721381830968
116,907.1430559353388,1.8106589174262806E-5,0.0022041787273573595
117,905.7805736811708,1.7973082747561277E-5,0.0022221518101049205
118,904.4120267946582,1.8050800307564046E-5,0.0022402026104124846
119,903.0316009908469,1.8106046337311225E-5,0.0022583086567497957
120,901.6442845279137,1.802957418731155E-5,0.0022763382309371073
121,900.2526937446239,1.806284115396702E-5,0.002294401072091074
122,898.8490674043674,1.8083651201706202E-5,0.0023124847232927803
123,897.4364904419684,1.8100943002305792E-5,0.002330585666295086
124,896.0108396024355,1.8163068939870477E-5,0.0023487487352349566
125,894.5719133490672,1.813123930534233E-5,0.002366879974540299
126,893.1227249634564,1.8153122245015895E-5,0.002385033096785315
127,891.6792571618217,1.830133683155783E-5,0.002403334433616873
128,890.2416528001692,1.8264807066258394E-5,0.0024215992406831314
129,888.795809103056,1.822665632373651E-5,0.0024398258970068677
130,887.3563314259927,1.8292828643692905E-5,0.0024581187256505605
131,885.9184642845278,1.8329731741165016E-5,0.0024764484573917256
132,884.4571992884097,1.8287672054311252E-5,0.002494736129446037
133,882.9886996039198,1.8313948923963006E-5,0.00251305007837
134,881.5164933622241,1.8316236956981704E-5,0.0025313663153269817
135,880.040138412278,1.8409999602092895E-5,0.0025497763149290747
136,878.5683217841694,1.8424846479699108E-5,0.002568201161408774
137,877.0880341133156,1.8367240462726007E-5,0.0025865684018715
138,875.6063941322326,1.835485013513307E-5,0.0026049232520066333
139,874.111556901208,1.8283896480993658E-5,0.002623207148487627
140,872.6264663129552,1.830396293132575E-5,0.0026415111114189527
141,871.1285662304006,1.8130282968851897E-5,0.0026596413943878044
142,869.6238396482652,1.810637092457732E-5,0.002677747765312382
143,868.1155461015426,1.8029918895589955E-5,0.002695777684207972
144,866.6172282012653,1.8034080674680377E-5,0.0027138117648826524
145,865.1248931210928,1.796028175001446E-5,0.002731772046632667
146,863.6316519038168,1.788081351592736E-5,0.0027496528601485943
147,862.1422520607927,1.795579680569645E-5,0.002767608656954291
148,860.6498665925667,1.802743561827851E-5,0.002785636092572569
149,859.1488910673685,1.8084957210810715E-5,0.00280372104978338
150,857.6402921423003,1.8047652875024993E-5,0.002821768702658405
151,856.1219790600895,1.811141465732987E-5,0.002839880117315735
152,854.600933369986,1.8097598167698465E-5,0.0028579777154834336
153,853.0808613760306,1.8130721256697224E-5,0.0028761084367401307
154,851.5661386338643,1.8022835501901575E-5,0.002894131272242032
155,850.0580958820783,1.7971145361172055E-5,0.0029121024176032044
156,848.5486364072151,1.7998072534126562E-5,0.002930100490137331
157,847.0802053222384,1.8036469562050722E-5,0.0029481369596993817
158,845.597699072277,1.8104202993019412E-5,0.002966241162692401
159,844.1155867098332,1.8059088582336678E-5,0.0029843002512747376
160,842.6323090156056,1.8054909651622545E-5,0.0030023551609263603
161,841.1507755604306,1.801962838544725E-5,0.0030203747893118075
162,839.6612792607855,1.7941254175108532E-5,0.003038316043486916
163,838.1647557178685,1.7848601450426958E-5,0.0030561646449373428
164,836.671884075704,1.793796774954816E-5,0.003074102612686891
165,835.1784599307615,1.8150994345241285E-5,0.003092253607032132
166,833.6550874787708,1.8006349435074185E-5,0.0031102599564672064
167,832.1328693752532,1.816688907882297E-5,0.0031284268455460296
168,830.6357696678189,1.825136385098205E-5,0.0031466782093970114
169,829.1305668730129,1.8194588368541475E-5,0.003164872797765553
170,827.6678245422931,1.8360504638489152E-5,0.003183233302404042
171,826.1994718873584,1.8417559411158804E-5,0.0032016508618152007
172,824.7518003393633,1.8567510485425545E-5,0.003220218372300626
173,823.2990819943957,1.863773294043896E-5,0.003238856105241065
174,821.8277199498011,1.8719702316689473E-5,0.0032575758075577546
175,820.3490096058922,1.873835825927869E-5,0.003276314165817033
176,818.8558963756907,1.8611618090140906E-5,0.003294925783907174
177,817.3685950064566,1.854278325696125E-5,0.0033134685671641355
178,815.8819148764202,1.8535686531843322E-5,0.0033320042536959787
179,814.3999717574453,1.8404487790409734E-5,0.0033504087414863884
180,812.9160202732744,1.8370285146173162E-5,0.0033687790266325617
181,811.4166857936775,1.842903632134051E-5,0.003387208062953902
182,809.9114034381344,1.8366833753877645E-5,0.00340557489670778
183,808.3807130222184,1.8342455492583353E-5,0.0034239173522003633
184,806.8512895817847,1.8333595588245852E-5,0.0034422509477886093
185,805.3067142153567,1.819205638537674E-5,0.003460443004173986
186,803.7684277239871,1.8286408002905194E-5,0.003478729412176891
187,802.2431828874438,1.827450485450016E-5,0.003497003917031391
188,800.7114745582617,1.8110413277044607E-5,0.0035151143303084357
189,799.1821283085777,1.8160219646277087E-5,0.0035332745499547127
190,797.6674058472348,1.8251006458007576E-5,0.0035515255564127204
191,796.1613379429007,1.8121732734505664E-5,0.003569647289147226
192,794.6436613422837,1.812607637489458E-5,0.0035877733655221206
193,793.0990165372606,1.8285244009124547E-5,0.003606058609531245
194,791.5504673539374,1.8153795074694762E-5,0.00362421240460594
195,790.016115181298,1.830569510243314E-5,0.003642518099708373
196,788.501094570348,1.834095175345926E-5,0.0036608590514618324
197,786.9807920547674,1.8143629722413546E-5,0.003679002681184246
198,785.4490910605616,1.7985718623794895E-5,0.003696988399808041
199,783.9395301629594,1.7956957585485575E-5,0.0037149453573935265
200,782.4012800626167,1.7736024402732694E-5,0.0037326813817962594
201,780.8683425652217,1.7749042593695727E-5,0.003750430424389955
202,779.3401144958742,1.7727456977477704E-5,0.0037681578813674324
203,777.8104855543448,1.779645831527663E-5,0.0037859543396827093
204,776.2522621058157,1.780016722288755E-5,0.003803754506905597
205,774.6788610681018,1.7684991326130063E-5,0.003821439498231727
206,773.0876363950591,1.7704228611793347E-5,0.0038391437268435204
207,771.4946960179158,1.7733741424851494E-5,0.003856877468268372
208,769.8888285408037,1.7745136212377607E-5,0.0038746226044807496
209,768.2818031539728,1.778119618807425E-5,0.003892403800668824
210,766.6845388676511,1.7812483779524563E-5,0.003910216284448349
211,765.0855417207316,1.779277799000641E-5,0.003928009062438355
212,763.4944255802963,1.7804214829892825E-5,0.0039458132772682486
213,761.927078349233,1.805615283453833E-5,0.003963869430102787
214,760.3518766198798,1.8320838833070137E-5,0.003982190268935857
215,758.7754753367511,1.8442706656607657E-5,0.004000632975592465
216,757.1700758259758,1.8324737057602027E-5,0.004018957712650067
217,755.5775545717569,1.831446391682613E-5,0.004037272176566893
218,753.9800890558153,1.833039601143287E-5,0.004055602572578326
219,752.3815131154364,1.8096248318370536E-5,0.004073698820896697
220,750.7774185305518,1.8104427682481306E-5,0.004091803248579178
221,749.2345933438784,1.8156870775663906E-5,0.004109960119354842
222,747.6938473812654,1.816820731065415E-5,0.004128128326665497
223,746.1546756467286,1.8128069749887923E-5,0.004146256396415385
224,744.6182638507158,1.811972237433696E-5,0.004164376118789722
225,743.093984607821,1.806806200710251E-5,0.004182444180796824
226,741.5802057251075,1.820858193867485E-5,0.004200652762735499
227,740.0730334579546,1.8151270584785877E-5,0.0042188040333202845
228,738.5655338452232,1.8267789268559478E-5,0.004237071822588844
229,737.0625878777292,1.8211698969856677E-5,0.0042552835215587
230,735.5461563558483,1.828673836979216E-5,0.004273570259928493
231,734.0467592439352,1.8313066673415845E-5,0.0042918833266019085
232,732.515371019188,1.8279043626932534E-5,0.004310162370228841
233,730.9759481380132,1.8336635646352047E-5,0.004328499005875193
234,729.4269139718895,1.8187969998429845E-5,0.004346686975873623
235,727.8853342472505,1.8206316557056387E-5,0.004364893292430679
236,726.3617051215583,1.809902280021021E-5,0.00438299231523089
237,724.8188446969483,1.8198136091439195E-5,0.004401190451322329
238,723.2607743330834,1.826198067370385E-5,0.004419452431996033
239,721.6940506263155,1.8282404904321737E-5,0.004437734836900354
240,720.1355495367774,1.8195886856614297E-5,0.004455930723756969
241,718.5530408943973,1.8068571062967558E-5,0.004473999294819936
242,716.9793986192559,1.8119072156026922E-5,0.004492118366975963
243,715.3562723030915,1.805898243768582E-5,0.004510177349413649
244,713.731179256298,1.8103637809432774E-5,0.004528280987223082
245,712.1087404681932,1.8064928994693006E-5,0.004546345916217775
246,710.4882419636582,1.795674719991033E-5,0.004564302663417685
247,708.8848733069897,1.7940663020366353E-5,0.004582243326438051
248,707.2848472827823,1.7865092390056678E-5,0.004600108418828107
249,705.6648283008772,1.7846532191818302E-5,0.004617954951019926
250,704.0402466766543,1.7982842599404456E-5,0.00463593779361933
251,702.4367815992241,1.8053616715658184E-5,0.004653991410334988
252,700.8275993664985,1.802285385854663E-5,0.004672014264193535
253,699.2675759475787,1.7878282276058482E-5,0.004689892546469593
254,697.7095488522564,1.7783728996950773E-5,0.004707676275466544
255,696.1599161301632,1.7734985438939163E-5,0.004725411260905483
256,694.5845089614583,1.7608338457005137E-5,0.004743019599362488
257,693.0110813549379,1.7771695158244587E-5,0.004760791294520733
258,691.4549242769695,1.7699438483196686E-5,0.004778490733003929
259,689.9070640563181,1.7722042972562816E-5,0.004796212775976492
260,688.3569554933242,1.7583986521354893E-5,0.0048137967624978465
261,686.7751387795901,1.7615771903382253E-5,0.004831412534401228
262,685.2234550341643,1.7841984062166546E-5,0.0048492545184633945
263,683.6887358668059,1.7700620774418977E-5,0.004866955139237813
264,682.1556755408031,1.780309004859783E-5,0.004884758229286411
265,680.5945707355171,1.7787357738367254E-5,0.004902545587024779
266,679.0271083254496,1.781658786288874E-5,0.004920362174887668
267,677.4607736722353,1.7800114432666968E-5,0.0049381622893203345
268,675.8655079782346,1.77643026916089E-5,0.004955926592011943
269,674.2482046792219,1.7736897333856987E-5,0.0049736634893458006
270,672.6503690966402,1.7777860935921393E-5,0.004991441350281722
271,671.0643786269712,1.7771053216820016E-5,0.005009212403498542
272,669.4629271317552,1.7907324917908052E-5,0.00502711972841645
273,667.8396757782439,1.799136746766839E-5,0.005045111095884118
274,666.1932658254872,1.8120363020430393E-5,0.0050632314589045485
275,664.5717059876856,1.8231426612945252E-5,0.005081462885517494
276,662.9440041432686,1.805222614471933E-5,0.005099515111662213
277,661.3234247113037,1.792059921697941E-5,0.005117435710879192
278,659.6889562930623,1.784343775033105E-5,0.005135279148629523
279,658.0504258801258,1.7757997522992565E-5,0.0051530371461525155
280,656.3891835376699,1.7888066685531133E-5,0.0051709252128380465
281,654.706024892862,1.7875275524521815E-5,0.005188800488362569
282,652.9988527286447,1.8043444814993517E-5,0.005206843933177562
283,651.2796487927269,1.790574976542341E-5,0.005224749682942986
284,649.5350712597752,1.7841185177900595E-5,0.005242590868120887
285,647.7986490607211,1.7882546307009605E-5,0.005260473414427896
286,646.0655186926875,1.786967531554274E-5,0.005278343089743439
287,644.3241964150376,1.792362451930973E-5,0.005296266714262749
288,642.5750460627635,1.775899976882187E-5,0.005314025714031571
289,640.8274781308837,1.776025344442106E-5,0.005331785967475992
290,639.077396808603,1.7800832933644897E-5,0.005349586800409637
291,637.3257636452091,1.7823112718357402E-5,0.005367409913127994
292,635.6161861461023,1.814475227956862E-5,0.005385554665407563
293,633.9287792395043,1.8245582625308546E-5,0.005403800248032871
294,632.2533221194398,1.818969902731641E-5,0.0054219899470601875
295,630.5634053761933,1.8207845370762244E-5,0.00544019779243095
296,628.8593211292095,1.823275422413947E-5,0.0054584305466550895
297,627.1508891145116,1.8229985737948313E-5,0.005476660532393038
298,625.4653672845051,1.8330688730135815E-5,0.005494991221123174
299,623.7762389542788,1.8303341961180554E-5,0.0055132945630843545
300,622.0091211409824,1.8143474245248912E-5,0.0055314380373296035
301,620.2378165873193,1.829341564893612E-5,0.00554973145297854
302,618.5231500566802,1.8453953875835152E-5,0.005568185406854375
303,616.8121007448381,1.838358517565595E-5,0.00558656899203003
304,615.0938075170958,1.8406937026165484E-5,0.005604975929056196
305,613.4195012484423,1.8298190900766518E-5,0.005623274119956962
306,611.7538922552405,1.8273715947720078E-5,0.0056415478359046825
307,610.095828335252,1.8195620389548498E-5,0.005659743456294231
308,608.4562668909188,1.8210227896121964E-5,0.005677953684190353
309,606.8207465047575,1.819603598933092E-5,0.005696149720179684
