#t,ESS,tempDiff,temp
0,999.9999999999848,0.0,0.0
1,999.9906104770844,2.7143525469067046E-5,2.7143525469067046E-5
2,999.9628237089617,2.7170777238042765E-5,5.431430270710981E-5
3,999.9168614576741,2.7261723939928687E-5,8.157602664703849E-5
4,999.8526498944283,2.7307200589360858E-5,1.0888322723639934E-4
5,999.7716093273048,2.7187746614289554E-5,1.360709738506889E-4
6,999.6715317795253,2.7460799987919873E-5,1.6353177383860877E-4
7,999.553633522181,2.755472639573869E-5,1.9108650023434747E-4
8,999.4186357843391,2.7346053372995797E-5,2.1843255360734328E-4
9,999.2649728801724,2.7462233592768757E-5,2.4589478720011204E-4
10,999.0961954538222,2.7141959206077102E-5,2.7303674640618913E-4
11,998.9128329828553,2.698030339707658E-5,3.000170498032657E-4
12,998.7153186519027,2.6928056529188435E-5,3.2694510633245416E-4
13,998.5035913193119,2.6917566288325087E-5,3.5386267262077926E-4
14,998.2777784811074,2.6848294190322444E-5,3.807109668111017E-4
15,998.038106279581,2.6813675225515416E-5,4.075246420366171E-4
16,997.7837344025316,2.671076054324605E-5,4.3423540257986316E-4
17,997.5186745496175,2.6418493736013076E-5,4.606538963158762E-4
18,997.2398827739032,2.645626614495351E-5,4.8711016246082975E-4
19,996.9438712704016,2.6769500652773295E-5,5.13879663113603E-4
20,996.6359531139871,2.684606728767024E-5,5.407257304012732E-4
21,996.3170005400101,2.6738534755828686E-5,5.67464265157102E-4
22,995.9788640498368,2.7206509547046812E-5,5.946707747041488E-4
23,995.6260187431022,2.734006388038759E-5,6.220108385845363E-4
24,995.2631488490134,2.7337368210269034E-5,6.493482067948054E-4
25,994.8907209738436,2.7063545462933493E-5,6.764117522577389E-4
26,994.5056410371669,2.704500340370943E-5,7.034567556614483E-4
27,994.113796797196,2.700415122422347E-5,7.304609068856718E-4
28,993.709715963083,2.6764906296049733E-5,7.572258131817214E-4
29,993.2910900847405,2.702264749248626E-5,7.842484606742077E-4
30,992.8608561473458,2.7137568288768993E-5,8.113860289629768E-4
31,992.4134627950556,2.7237169220526474E-5,8.386231981835032E-4
32,991.9557211273144,2.727609298056543E-5,8.658992911640686E-4
33,991.4898000630737,2.7414512604088996E-5,8.933138037681576E-4
34,991.007460635249,2.7757189863714637E-5,9.210709936318722E-4
35,990.51472975363,2.776033291710337E-5,9.488313265489755E-4
36,990.0117578708287,2.7636121076364877E-5,9.764674476253404E-4
37,989.4929527205085,2.757429161095529E-5,0.0010040417392362957
38,988.9716547893827,2.725892996310347E-5,0.0010313006691993992
39,988.4314564790155,2.7541342415120878E-5,0.00105884201161452
40,987.8915519330643,2.7401140267052284E-5,0.0010862431518815724
41,987.3395312516849,2.7666045319388283E-5,0.0011139091972009606
42,986.7795774297759,2.764497379476213E-5,0.0011415541709957227
43,986.2048161721485,2.7927999959782833E-5,0.0011694821709555055
44,985.6145625824277,2.817601997413653E-5,0.001197658190929642
45,985.0187770728431,2.7976812644733144E-5,0.001225635003574375
46,984.4171787981851,2.7700829626230113E-5,0.0012533358332006053
47,983.8059230089556,2.7860682040305087E-5,0.0012811965152409103
48,983.1841256190744,2.7910108164760083E-5,0.0013091066234056704
49,982.5514383867893,2.7778121651152372E-5,0.0013368847450568227
50,981.9092108607564,2.7917629258358792E-5,0.0013648023743151815
51,981.2577567375046,2.7912963946822963E-5,0.0013927153382620044
52,980.608102934026,2.769188601730968E-5,0.0014204072242793141
53,979.9468285796007,2.7629136962289172E-5,0.0014480363612416032
54,979.2833604938021,2.765578652287168E-5,0.001475692147764475
55,978.6081168859907,2.7588884865218632E-5,0.0015032810326296936
56,977.911032449414,2.7830769206197906E-5,0.0015311118018358915
57,977.2199240338344,2.7350833620250558E-5,0.001558462635456142
58,976.5161949233085,2.752130765293185E-5,0.0015859839431090737
59,975.8177749792311,2.7141268393685874E-5,0.0016131252115027595
60,975.1044380681107,2.7201879263978537E-5,0.0016403270907667381
61,974.3833415450497,2.7329744880122676E-5,0.0016676568356468607
62,973.654628836825,2.7240837552993618E-5,0.0016948976731998543
63,972.9119925536115,2.7143476116522534E-5,0.0017220411493163769
64,972.1592492675608,2.7223198356032032E-5,0.0017492643476724088
65,971.3940348588519,2.7176156505894103E-5,0.0017764405041783028
66,970.6315501748819,2.6802145842344463E-5,0.0018032426500206474
67,969.8648909064402,2.680757902811613E-5,0.0018300502290487634
68,969.100155193918,2.6643093265576542E-5,0.00185669332231434
69,968.3432313573728,2.628395558369911E-5,0.001882977277898039
70,967.5735972270726,2.6436652154145396E-5,0.0019094139300521846
71,966.7751680104109,2.6633452029688685E-5,0.0019360473820818733
72,965.9700329854321,2.6554081483500306E-5,0.0019626014635653736
73,965.1543186575846,2.6761977912662997E-5,0.0019893634414780365
74,964.3254288131109,2.7038318649631903E-5,0.0020164017601276684
75,963.4880188327558,2.7091821251731583E-5,0.0020434935813794
76,962.6357687774461,2.717811545307181E-5,0.0020706716968324716
77,961.7948857536163,2.6890729181912715E-5,0.0020975624260143842
78,960.9542105181663,2.715149783797536E-5,0.0021247139238523595
79,960.0950093093801,2.7167294857213843E-5,0.0021518812187095735
80,959.2378187053997,2.7312822976307137E-5,0.0021791940416858806
81,958.3681134114674,2.7215642943646293E-5,0.002206409684629527
82,957.5063402711901,2.6963687280772433E-5,0.0022333733719102993
83,956.6413860866525,2.6697910023228545E-5,0.002260071281933528
84,955.7753899884051,2.6731214899816206E-5,0.002286802496833344
85,954.9093273243357,2.6350441217176757E-5,0.0023131529380505207
86,954.0251563353837,2.6526976543962925E-5,0.002339679914594484
87,953.1380227072168,2.6520975150115425E-5,0.0023662008897445993
88,952.244180402111,2.669794273858351E-5,0.0023928988324831827
89,951.3599685838471,2.67108180509742E-5,0.002419609650534157
90,950.476661855088,2.674953184213476E-5,0.002446359182376292
91,949.5852026115349,2.6998971832856005E-5,0.0024733581542091478
92,948.6739476369646,2.7142148210866647E-5,0.0025005003024200145
93,947.7447215725073,2.7263533015973023E-5,0.0025277638354359875
94,946.7983723877711,2.724499519759155E-5,0.002555008830633579
95,945.8405438365689,2.7229466331155806E-5,0.0025822382969647346
96,944.869476744981,2.722116248360657E-5,0.002609459459448341
97,943.9123174177814,2.7080746553500566E-5,0.0026365402060018416
98,942.9478075848631,2.6929102354852044E-5,0.002663469308356694
99,941.9796943865697,2.6541964665841923E-5,0.0026900112730225355
100,940.9955803295611,2.6487024730130066E-5,0.0027164982977526658
101,940.0109206628745,2.647043491983001E-5,0.0027429687326724957
102,939.0350980406408,2.6328857368872508E-5,0.002769297590041368
103,938.0707370860216,2.6228224459558078E-5,0.0027955258145009264
104,937.1123899086707,2.612540185936365E-5,0.00282165121636029
105,936.14946350714,2.600847758763796E-5,0.002847659693947928
106,935.1809505563783,2.6018675464195065E-5,0.002873678369412123
107,934.2064805565976,2.5976948256531253E-5,0.002899655317668654
108,933.2350093355938,2.5992537698539293E-5,0.0029256478553671933
109,932.2731505025146,2.588597426609821E-5,0.0029515338296332914
110,931.3102627094559,2.5812486155848457E-5,0.0029773463157891397
111,930.3589587940698,2.5634005195261222E-5,0.003002980320984401
112,929.4170688390419,2.5782782968382717E-5,0.0030287631039527837
113,928.4977263918705,2.545488695150561E-5,0.0030542179909042893
114,927.562792875829,2.5619238134010673E-5,0.0030798372290383
115,926.618148172775,2.576006668441662E-5,0.0031055972957227166
116,925.6684716687463,2.5746375421955727E-5,0.0031313436711446724
117,924.7294333688495,2.5656510539667508E-5,0.00315700018168434
118,923.7971735673758,2.5683831272252443E-5,0.0031826840129565923
119,922.8765479837119,2.549852318422671E-5,0.0032081825361408188
120,921.9672102119056,2.545620356490815E-5,0.003233638739705727
121,921.0408020637253,2.5625668519693833E-5,0.0032592644082254205
122,920.1029181349008,2.5663477274152808E-5,0.0032849278854995734
123,919.1666605631137,2.570937083999028E-5,0.0033106372563395637
124,918.2339547191643,2.5835497830606392E-5,0.00333647275417017
125,917.3003748225501,2.5744292263691346E-5,0.0033622170464338613
126,916.3593471273982,2.5714216457816398E-5,0.003387931262891678
127,915.3928510865923,2.609062337519592E-5,0.003414021886266874
128,914.4162253744446,2.6007307394139633E-5,0.0034400291936610133
129,913.4441532031258,2.567573009725076E-5,0.003465704923758264
130,912.4791221926815,2.554356206004039E-5,0.003491248485818304
131,911.5249569673836,2.5254983555819362E-5,0.0035165034693741236
132,910.5765771614778,2.5275455802359524E-5,0.003541778925176483
133,909.6415655909984,2.549755865704548E-5,0.0035672764838335282
134,908.7103342011002,2.548733790285234E-5,0.0035927638217363804
135,907.7609561005515,2.544216841113499E-5,0.0036182059901475154
136,906.7995205296522,2.541969410427059E-5,0.003643625684251786
137,905.8233470821596,2.54549116659665E-5,0.0036690805959177526
138,904.8374382230688,2.5482258201356804E-5,0.0036945628541191094
139,903.8739365227935,2.5652463307814783E-5,0.0037202153174269244
140,902.9042555696542,2.572000894326214E-5,0.0037459353263701867
141,901.9250320056553,2.5507167346055543E-5,0.0037714424937162422
142,900.9365224985464,2.563511094130213E-5,0.0037970776046575444
143,899.9256953109515,2.572354418885705E-5,0.0038228011488464016
144,898.9225246981736,2.5618390432824642E-5,0.0038484195392792264
145,897.8820512386953,2.5626934643628075E-5,0.0038740464739228544
146,896.8271219420042,2.576534538197236E-5,0.0038998118193048267
147,895.7817661521211,2.578021723121083E-5,0.0039255920365360375
148,894.7361558700802,2.58555904513982E-5,0.003951447626987435
149,893.7036385096558,2.591685531717345E-5,0.003977364482304609
150,892.6481300588246,2.6296258981006908E-5,0.004003660741285616
151,891.5799754344113,2.6625982327031858E-5,0.004030286723612648
152,890.5120109933247,2.675431926828596E-5,0.004057041042880934
153,889.4337552351999,2.6720218750289318E-5,0.004083761261631224
154,888.3589801466521,2.676799604265665E-5,0.00411052925767388
155,887.2912487697603,2.6497544425857292E-5,0.004137026802099738
156,886.2194783623928,2.648781646143643E-5,0.004163514618561174
157,885.1680226650367,2.6345971585648394E-5,0.004189860590146822
158,884.0874188297886,2.630888679064155E-5,0.004216169476937464
159,882.9965208623344,2.6385978354488605E-5,0.004242555455291953
160,881.8971633298708,2.6548466380466026E-5,0.004269103921672419
161,880.8021923528705,2.633884831704303E-5,0.004295442769989462
162,879.6896837395242,2.6486181350185394E-5,0.004321928951339648
163,878.5984759942025,2.6608888978598945E-5,0.004348537840318247
164,877.4952914430023,2.6692840915636628E-5,0.0043752306812338835
165,876.3684321280672,2.6911859869634084E-5,0.004402142541103517
166,875.2643651185957,2.6786280168883184E-5,0.0044289288212724
167,874.1626977286527,2.6670414711645477E-5,0.004455599235984046
168,873.0617134314839,2.6614283560429023E-5,0.004482213519544475
169,871.9693776125863,2.655559878087576E-5,0.0045087691183253505
170,870.8743133147244,2.661902387948164E-5,0.0045353881422048326
171,869.7563180396605,2.6638661784947604E-5,0.00456202680398978
172,868.6736782155245,2.619067876593305E-5,0.004588217482755713
173,867.6101424104552,2.602111342588173E-5,0.004614238596181595
174,866.5467165576699,2.6193053721783127E-5,0.004640431649903378
175,865.491947226001,2.632333783582998E-5,0.004666754987739208
176,864.3853376274428,2.6549727859799267E-5,0.004693304715599007
177,863.2601054738194,2.6469860996293345E-5,0.0047197745765953005
178,862.1313299796197,2.6613518368518117E-5,0.004746388094963819
179,861.0204353301352,2.660006473982166E-5,0.004772988159703641
180,859.9123962508638,2.6551682346567382E-5,0.0047995398420502084
181,858.7846336462663,2.6346434931908093E-5,0.004825886276982117
182,857.6663920595889,2.6431697390581855E-5,0.004852317974372699
183,856.5390326850107,2.651542519803051E-5,0.00487883339957073
184,855.3975760911409,2.6541263875970227E-5,0.0049053746634467
185,854.2568904083984,2.6642777538361614E-5,0.004932017440985061
186,853.0999107453205,2.6818890878806506E-5,0.0049588363318638674
187,851.926203159517,2.6815430037283886E-5,0.004985651761901151
188,850.7482960817485,2.6748241706970172E-5,0.005012400003608122
189,849.5679118433674,2.6442669400338862E-5,0.005038842673008461
190,848.4035742099037,2.6459923877314233E-5,0.005065302596885775
191,847.2268288843138,2.6389229421126486E-5,0.005091691826306901
192,846.0512869975079,2.6377976800196218E-5,0.005118069803107098
193,844.8708719777338,2.6171872512122648E-5,0.00514424167561922
194,843.6648449923996,2.6228819879789182E-5,0.00517047049549901
195,842.4666631926988,2.626808727577925E-5,0.005196738582774789
196,841.2423673046846,2.6242087109688536E-5,0.005222980669884477
197,840.0380735109962,2.6157638461204455E-5,0.005249138308345682
198,838.8384147161399,2.605669431431123E-5,0.005275195002659993
199,837.6497966963276,2.5988206146793896E-5,0.005301183208806787
200,836.4586410890406,2.5916734470130874E-5,0.005327099943276918
201,835.2663541163638,2.589103260959241E-5,0.00535299097588651
202,834.0868509077513,2.6094702735605714E-5,0.0053790856786221156
203,832.9251725631365,2.610708257939107E-5,0.005405192761201507
204,831.724767899164,2.6043480236556154E-5,0.005431236241438063
205,830.5106016825092,2.6025922425407808E-5,0.005457262163863471
206,829.3235776995062,2.5821614674455804E-5,0.0054830837785379265
207,828.1311653094009,2.580975385792708E-5,0.005508893532395854
208,826.881464176511,2.6078604004968277E-5,0.005534972136400822
209,825.6456503056254,2.611114137650024E-5,0.0055610832777773225
210,824.4334887288916,2.6009703010334714E-5,0.005587092980787657
211,823.2252008318555,2.6096857612563582E-5,0.00561318983840022
212,822.0379788808212,2.6276230838554137E-5,0.0056394660692387745
213,820.8486894085336,2.6306152512994074E-5,0.005665772221751768
214,819.6336209164282,2.647971386479244E-5,0.0056922519356165605
215,818.4131326694369,2.638210007680256E-5,0.005718634035693363
216,817.2048150093402,2.6136099583203857E-5,0.0057447701352765675
217,816.0051303867688,2.6280704486535676E-5,0.0057710508397631035
218,814.7950853888275,2.6293203899236864E-5,0.0057973440436623405
219,813.5986231452374,2.6332109083126468E-5,0.005823676152745467
220,812.4384936237834,2.644175763338739E-5,0.005850117910378855
221,811.2692344937935,2.642204120055328E-5,0.005876539951579408
222,810.1327433938277,2.6306038655132594E-5,0.0059028459902345405
223,808.9969195164199,2.6227649357329993E-5,0.005929073639591871
224,807.8466656457781,2.610902203288453E-5,0.005955182661624756
225,806.716395637236,2.5944630899748447E-5,0.005981127292524504
226,805.5593465070351,2.6172534659676683E-5,0.00600729982718418
227,804.4138478121905,2.6479305864181586E-5,0.006033779133048362
228,803.2612390623347,2.66672983925769E-5,0.006060446431440939
229,802.0976175820394,2.6750746651573024E-5,0.006087197178092512
230,800.966815248033,2.6420792503667604E-5,0.00611361797059618
231,799.8077979912439,2.675346506069852E-5,0.006140371435656878
232,798.6795337163419,2.650220874972077E-5,0.006166873644406599
233,797.5121365620648,2.6651354978108038E-5,0.0061935249993847075
234,796.3688254083288,2.64633732753694E-5,0.006219988372660077
235,795.2440505597899,2.624201000682366E-5,0.006246230382666901
236,794.0998611590906,2.632060357457565E-5,0.0062725509862414765
237,792.9410158161547,2.6602150972778367E-5,0.006299153137214255
238,791.8177304698825,2.6562846849935917E-5,0.00632571598406419
239,790.6872756469664,2.642964770861618E-5,0.006352145631772807
240,789.6188950366911,2.665062078384609E-5,0.006378796252556653
241,788.5958194420944,2.6562466711635004E-5,0.006405358719268288
242,787.5645411180539,2.673301582745816E-5,0.0064320917350957465
243,786.5100697016007,2.667935597049648E-5,0.0064587710910662425
244,785.4769751005841,2.6652737796078563E-5,0.006485423828862321
245,784.4441695374225,2.646839649018236E-5,0.006511892225352504
246,783.3953197611455,2.655120421907947E-5,0.006538443429571584
247,782.3649385076868,2.6335235118253386E-5,0.006564778664689837
248,781.3238998070445,2.6486641027338842E-5,0.006591265305717176
249,780.269943296,2.6464262087229465E-5,0.006617729567804406
250,779.2337617969658,2.6598313517746136E-5,0.006644327881322153
251,778.3008441294791,2.6612818176589327E-5,0.006670940699498742
252,777.3973076757902,2.6386742890754397E-5,0.006697327442389497
253,776.4736922844598,2.6503977513094968E-5,0.006723831419902591
254,775.5540897306226,2.6493907167777806E-5,0.00675032532707037
255,774.614282190613,2.6725636375778017E-5,0.006777050963446147
256,773.6834983924994,2.6771789427841817E-5,0.006803822752873989
257,772.7479630628615,2.6673117575421265E-5,0.00683049587044941
258,771.7971030034366,2.6832759807213223E-5,0.006857328630256623
259,770.8647801911903,2.674088238010676E-5,0.0068840695126367295
260,769.9024731399129,2.6970881560405127E-5,0.006911040394197134
261,768.929788397347,2.7053694814938986E-5,0.0069380940890120734
262,767.9469897088371,2.7084012347091123E-5,0.006965178101359165
263,767.0073987873956,2.7124298963849E-5,0.006992302400323014
264,766.0422326804753,2.7109501839738565E-5,0.007019411902162752
265,765.0847118531902,2.7176304582362277E-5,0.007046588206745114
266,764.1227453720911,2.7276805177694217E-5,0.007073865011922809
267,763.1947053240718,2.7301150208383534E-5,0.007101166162131192
268,762.2674889482233,2.7021056968118348E-5,0.00712818721909931
269,761.3808666418157,2.711455007268882E-5,0.007155301769171999
270,760.4683005117644,2.7196326569021782E-5,0.007182498095741021
271,759.5753901586029,2.692378061917005E-5,0.007209421876360191
272,758.6792090641819,2.7142628114043388E-5,0.007236564504474234
273,757.7373953137801,2.7143247227353933E-5,0.0072637077517015885
274,756.8589466428851,2.7074517567347797E-5,0.007290782269268936
275,756.0080454062393,2.6887682391146673E-5,0.007317669951660083
276,755.0902690722247,2.70869203111405E-5,0.0073447568719712236
277,754.1771855197156,2.7064197609863433E-5,0.007371821069581087
278,753.2698377790115,2.6728657623227625E-5,0.007398549727204315
279,752.3588972416192,2.670918098686218E-5,0.007425258908191177
280,751.4127109974738,2.6825182309676427E-5,0.007452084090500854
281,750.4494939793403,2.6902777775080364E-5,0.007478986868275934
282,749.4637651026019,2.7077834348250078E-5,0.0075060647026241835
283,748.4295015333573,2.7235059332028805E-5,0.007533299761956212
284,747.3763494206826,2.7467565292578724E-5,0.007560767327248791
285,746.3132019413224,2.769168938869442E-5,0.007588459016637485
286,745.224935115441,2.8081212443222486E-5,0.007616540229080708
287,744.1386834581587,2.7986680218157496E-5,0.007644526909298866
288,743.0534175360832,2.7900296000672253E-5,0.007672427205299538
289,742.0509804565086,2.7806699768919413E-5,0.007700233905068457
290,741.03805419992,2.7625034397455818E-5,0.007727858939465913
291,740.0225067662406,2.725292460162158E-5,0.007755111864067535
292,739.0042887900184,2.723575237869404E-5,0.0077823476164462285
293,737.9955420404225,2.6975419036856587E-5,0.007809323035483085
294,736.9656185354131,2.6885573294725665E-5,0.00783620860877781
295,735.9256267928492,2.66334830403729E-5,0.007862842091818183
296,734.870376035443,2.6504196157915363E-5,0.007889346287976098
297,733.8305165731933,2.6460293005302E-5,0.0079158065809814
298,732.8422527547795,2.6353711573763786E-5,0.007942160292555163
299,731.8842792286987,2.6485466613902185E-5,0.007968645759169064
300,730.94816115847,2.646242795770218E-5,0.007995108187126766
301,729.9936966202937,2.67830210445763E-5,0.008021891208171343
302,729.0478342385796,2.6785344629154124E-5,0.008048676552800497
303,728.0936653234552,2.673214409830297E-5,0.0080754086968988
304,727.1221398254868,2.681675500059243E-5,0.008102225451899392
305,726.1311746973413,2.7084799904635547E-5,0.008129310251804028
306,725.1231777646532,2.7398913191453805E-5,0.008156709164995482
307,724.1088965679465,2.775562917289097E-5,0.008184464794168374
308,723.1536462345832,2.776346833644508E-5,0.008212228262504818
309,722.186927882047,2.7818250703387487E-5,0.008240046513208206
