#t,ESS,tempDiff,temp
0,999.9999999999848,0.0,0.0
1,999.9899999999985,2.7143525469067046E-5,2.7143525469067046E-5
2,999.9604757473286,2.7170777238042765E-5,5.431430270710981E-5
3,999.9116751421681,2.7261723939928687E-5,8.157602664703849E-5
4,999.8439970797949,2.7307200589360858E-5,1.0888322723639934E-4
5,999.7578943387081,2.7187746614289554E-5,1.360709738506889E-4
6,999.6534331730611,2.7460799987919873E-5,1.6353177383860877E-4
7,999.5308418039209,2.755472639573869E-5,1.9108650023434747E-4
8,999.3909849182161,2.7346053372995797E-5,2.1843255360734328E-4
9,999.2342157870444,2.7462233592768757E-5,2.4589478720011204E-4
10,999.0604662593363,2.7141959206077102E-5,2.7303674640618913E-4
11,998.8711595667958,2.698030339707658E-5,3.000170498032657E-4
12,998.6659644992696,2.6928056529188435E-5,3.2694510633245416E-4
13,998.4443165792923,2.6917566288325087E-5,3.5386267262077926E-4
14,998.2066844512651,2.6848294190322444E-5,3.807109668111017E-4
15,997.9533188382995,2.6813675225515416E-5,4.075246420366171E-4
16,997.6834040318729,2.671076054324605E-5,4.3423540257986316E-4
17,997.3981409029982,2.6418493736013076E-5,4.606538963158762E-4
18,997.0989598859404,2.645626614495351E-5,4.8711016246082975E-4
19,996.7869024746618,2.6769500652773295E-5,5.13879663113603E-4
20,996.4628085547769,2.684606728767024E-5,5.407257304012732E-4
21,996.1276916118803,2.6738534755828686E-5,5.67464265157102E-4
22,995.7790788214072,2.7206509547046812E-5,5.946707747041488E-4
23,995.4182646575579,2.734006388038759E-5,6.220108385845363E-4
24,995.0446751068331,2.7337368210269034E-5,6.493482067948054E-4
25,994.657924461197,2.7063545462933493E-5,6.764117522577389E-4
26,994.259032422956,2.704500340370943E-5,7.034567556614483E-4
27,993.846571551783,2.700415122422347E-5,7.304609068856718E-4
28,993.4246558671656,2.6764906296049733E-5,7.572258131817214E-4
29,992.9904605822301,2.702264749248626E-5,7.842484606742077E-4
30,992.5441338230685,2.7137568288768993E-5,8.113860289629768E-4
31,992.0854397519307,2.7237169220526474E-5,8.386231981835032E-4
32,991.6157494878605,2.727609298056543E-5,8.658992911640686E-4
33,991.1323416314405,2.7414512604088996E-5,8.933138037681576E-4
34,990.6348599339162,2.7757189863714637E-5,9.210709936318722E-4
35,990.1239425874843,2.776033291710337E-5,9.488313265489755E-4
36,989.6003522166444,2.7636121076364877E-5,9.764674476253404E-4
37,989.0668326446671,2.757429161095529E-5,0.0010040417392362957
38,988.5231534641953,2.725892996310347E-5,0.0010313006691993992
39,987.966375061769,2.7541342415120878E-5,0.00105884201161452
40,987.4015918003546,2.7401140267052284E-5,0.0010862431518815724
41,986.823206967394,2.7666045319388283E-5,0.0011139091972009606
42,986.2342924352622,2.764497379476213E-5,0.0011415541709957227
43,985.6388832453858,2.7927999959782833E-5,0.0011694821709555055
44,985.0368965791444,2.817601997413653E-5,0.001197658190929642
45,984.4236012842241,2.7976812644733144E-5,0.001225635003574375
46,983.8041912297717,2.7700829626230113E-5,0.0012533358332006053
47,983.1766508875077,2.7860682040305087E-5,0.0012811965152409103
48,982.541067462684,2.7910108164760083E-5,0.0013091066234056704
49,981.9104818141151,2.7778121651152372E-5,0.0013368847450568227
50,981.2775882067104,2.7917629258358792E-5,0.0013648023743151815
51,980.6389230292067,2.7912963946822963E-5,0.0013927153382620044
52,979.9988050855172,2.769188601730968E-5,0.0014204072242793141
53,979.3527142212463,2.7629136962289172E-5,0.0014480363612416032
54,978.703545544795,2.765578652287168E-5,0.001475692147764475
55,978.0521317518047,2.7588884865218632E-5,0.0015032810326296936
56,977.3913715208993,2.7830769206197906E-5,0.0015311118018358915
57,976.7186290416753,2.7350833620250558E-5,0.001558462635456142
58,976.0379520227779,2.752130765293185E-5,0.0015859839431090737
59,975.3485263193387,2.7141268393685874E-5,0.0016131252115027595
60,974.6516003769387,2.7201879263978537E-5,0.0016403270907667381
61,973.9403910245042,2.7329744880122676E-5,0.0016676568356468607
62,973.2314068312235,2.7240837552993618E-5,0.0016948976731998543
63,972.5110521494072,2.7143476116522534E-5,0.0017220411493163769
64,971.7840910908519,2.7223198356032032E-5,0.0017492643476724088
65,971.049391271572,2.7176156505894103E-5,0.0017764405041783028
66,970.2998076362162,2.6802145842344463E-5,0.0018032426500206474
67,969.5396567410814,2.680757902811613E-5,0.0018300502290487634
68,968.7781828845967,2.6643093265576542E-5,0.00185669332231434
69,968.0056975403385,2.628395558369911E-5,0.001882977277898039
70,967.2249574933944,2.6436652154145396E-5,0.0019094139300521846
71,966.434765320402,2.6633452029688685E-5,0.0019360473820818733
72,965.6381992304113,2.6554081483500306E-5,0.0019626014635653736
73,964.8352308990169,2.6761977912662997E-5,0.0019893634414780365
74,964.021623027129,2.7038318649631903E-5,0.0020164017601276684
75,963.203963187324,2.7091821251731583E-5,0.0020434935813794
76,962.3721076181477,2.717811545307181E-5,0.0020706716968324716
77,961.5272538714736,2.6890729181912715E-5,0.0020975624260143842
78,960.6814910539196,2.715149783797536E-5,0.0021247139238523595
79,959.8361007994743,2.7167294857213843E-5,0.0021518812187095735
80,958.9900800960339,2.7312822976307137E-5,0.0021791940416858806
81,958.1383997398304,2.7215642943646293E-5,0.002206409684629527
82,957.2733422982526,2.6963687280772433E-5,0.0022333733719102993
83,956.4050784916813,2.6697910023228545E-5,0.002260071281933528
84,955.5275601688304,2.6731214899816206E-5,0.002286802496833344
85,954.6387172700811,2.6350441217176757E-5,0.0023131529380505207
86,953.754611162793,2.6526976543962925E-5,0.002339679914594484
87,952.8674791155415,2.6520975150115425E-5,0.0023662008897445993
88,951.9775393877026,2.669794273858351E-5,0.0023928988324831827
89,951.0786363296779,2.67108180509742E-5,0.002419609650534157
90,950.1757101494093,2.674953184213476E-5,0.002446359182376292
91,949.265910376597,2.6998971832856005E-5,0.0024733581542091478
92,948.3519786017777,2.7142148210866647E-5,0.0025005003024200145
93,947.4409759320247,2.7263533015973023E-5,0.0025277638354359875
94,946.5216876603718,2.724499519759155E-5,0.002555008830633579
95,945.6011419416357,2.7229466331155806E-5,0.0025822382969647346
96,944.6746332884777,2.722116248360657E-5,0.002609459459448341
97,943.7537058720027,2.7080746553500566E-5,0.0026365402060018416
98,942.8369800929926,2.6929102354852044E-5,0.002663469308356694
99,941.9212569850924,2.6541964665841923E-5,0.0026900112730225355
100,941.0013514896118,2.6487024730130066E-5,0.0027164982977526658
101,940.0746588210236,2.647043491983001E-5,0.0027429687326724957
102,939.1508982960306,2.6328857368872508E-5,0.002769297590041368
103,938.2197032299949,2.6228224459558078E-5,0.0027955258145009264
104,937.2873828476204,2.612540185936365E-5,0.00282165121636029
105,936.3534813192861,2.600847758763796E-5,0.002847659693947928
106,935.4269416976697,2.6018675464195065E-5,0.002873678369412123
107,934.4876336734574,2.5976948256531253E-5,0.002899655317668654
108,933.5402174187541,2.5992537698539293E-5,0.0029256478553671933
109,932.591158249498,2.588597426609821E-5,0.0029515338296332914
110,931.639877728666,2.5812486155848457E-5,0.0029773463157891397
111,930.6901950334402,2.5634005195261222E-5,0.003002980320984401
112,929.736736677345,2.5782782968382717E-5,0.0030287631039527837
113,928.7676635716791,2.545488695150561E-5,0.0030542179909042893
114,927.7974229336023,2.5619238134010673E-5,0.0030798372290383
115,926.8241928499467,2.576006668441662E-5,0.0031055972957227166
116,925.8512070746682,2.5746375421955727E-5,0.0031313436711446724
117,924.8723825528498,2.5656510539667508E-5,0.00315700018168434
118,923.8912091220947,2.5683831272252443E-5,0.0031826840129565923
119,922.8913096300662,2.549852318422671E-5,0.0032081825361408188
120,921.8802857249108,2.545620356490815E-5,0.003233638739705727
121,920.8612992101066,2.5625668519693833E-5,0.0032592644082254205
122,919.8276585270188,2.5663477274152808E-5,0.0032849278854995734
123,918.7966139185385,2.570937083999028E-5,0.0033106372563395637
124,917.7566442885621,2.5835497830606392E-5,0.00333647275417017
125,916.712552255201,2.5744292263691346E-5,0.0033622170464338613
126,915.6782583840238,2.5714216457816398E-5,0.003387931262891678
127,914.6551379969075,2.609062337519592E-5,0.003414021886266874
128,913.625805529048,2.6007307394139633E-5,0.0034400291936610133
129,912.590315352421,2.567573009725076E-5,0.003465704923758264
130,911.5413960526911,2.554356206004039E-5,0.003491248485818304
131,910.4844355157646,2.5254983555819362E-5,0.0035165034693741236
132,909.4291781504015,2.5275455802359524E-5,0.003541778925176483
133,908.3818959062805,2.549755865704548E-5,0.0035672764838335282
134,907.3430419913741,2.548733790285234E-5,0.0035927638217363804
135,906.2908501736231,2.544216841113499E-5,0.0036182059901475154
136,905.2403006795762,2.541969410427059E-5,0.003643625684251786
137,904.1842433638257,2.54549116659665E-5,0.0036690805959177526
138,903.1279918976126,2.5482258201356804E-5,0.0036945628541191094
139,902.0496381265257,2.5652463307814783E-5,0.0037202153174269244
140,900.9829575656743,2.572000894326214E-5,0.0037459353263701867
141,899.9088458765258,2.5507167346055543E-5,0.0037714424937162422
142,898.8414751330974,2.563511094130213E-5,0.0037970776046575444
143,897.760266155944,2.572354418885705E-5,0.0038228011488464016
144,896.6741307850996,2.5618390432824642E-5,0.0038484195392792264
145,895.5741502209212,2.5626934643628075E-5,0.0038740464739228544
146,894.4763443264998,2.576534538197236E-5,0.0038998118193048267
147,893.3638086618172,2.578021723121083E-5,0.0039255920365360375
148,892.2516623797891,2.58555904513982E-5,0.003951447626987435
149,891.1386827525265,2.591685531717345E-5,0.003977364482304609
150,890.0041435794421,2.6296258981006908E-5,0.004003660741285616
151,888.8712457481618,2.6625982327031858E-5,0.004030286723612648
152,887.7440419584178,2.675431926828596E-5,0.004057041042880934
153,886.6166289072753,2.6720218750289318E-5,0.004083761261631224
154,885.4931123521835,2.676799604265665E-5,0.00411052925767388
155,884.3591429476049,2.6497544425857292E-5,0.004137026802099738
156,883.2271109819262,2.648781646143643E-5,0.004163514618561174
157,882.1050914815812,2.6345971585648394E-5,0.004189860590146822
158,880.9777548791664,2.630888679064155E-5,0.004216169476937464
159,879.8370129883931,2.6385978354488605E-5,0.004242555455291953
160,878.7063959194563,2.6548466380466026E-5,0.004269103921672419
161,877.5864580993716,2.633884831704303E-5,0.004295442769989462
162,876.4718222822581,2.6486181350185394E-5,0.004321928951339648
163,875.3489498868086,2.6608888978598945E-5,0.004348537840318247
164,874.2322303884195,2.6692840915636628E-5,0.0043752306812338835
165,873.1230329711808,2.6911859869634084E-5,0.004402142541103517
166,872.0306170471501,2.6786280168883184E-5,0.0044289288212724
167,870.9476713996179,2.6670414711645477E-5,0.004455599235984046
168,869.8664466356804,2.6614283560429023E-5,0.004482213519544475
169,868.7849874911332,2.655559878087576E-5,0.0045087691183253505
170,867.6860386643427,2.661902387948164E-5,0.0045353881422048326
171,866.5774051293332,2.6638661784947604E-5,0.00456202680398978
172,865.4769136852966,2.619067876593305E-5,0.004588217482755713
173,864.3618289488204,2.602111342588173E-5,0.004614238596181595
174,863.2564586180318,2.6193053721783127E-5,0.004640431649903378
175,862.1489156705833,2.632333783582998E-5,0.004666754987739208
176,861.0376763783312,2.6549727859799267E-5,0.004693304715599007
177,859.9369702686627,2.6469860996293345E-5,0.0047197745765953005
178,858.8326046538535,2.6613518368518117E-5,0.004746388094963819
179,857.7347259568237,2.660006473982166E-5,0.004772988159703641
180,856.6231348143845,2.6551682346567382E-5,0.0047995398420502084
181,855.5132135169833,2.6346434931908093E-5,0.004825886276982117
182,854.41837700682,2.6431697390581855E-5,0.004852317974372699
183,853.3166843091012,2.651542519803051E-5,0.00487883339957073
184,852.2102225210502,2.6541263875970227E-5,0.0049053746634467
185,851.1026538268975,2.6642777538361614E-5,0.004932017440985061
186,849.9776963671897,2.6818890878806506E-5,0.0049588363318638674
187,848.8559041496223,2.6815430037283886E-5,0.004985651761901151
188,847.725727023903,2.6748241706970172E-5,0.005012400003608122
189,846.6034312968854,2.6442669400338862E-5,0.005038842673008461
190,845.4689242767233,2.6459923877314233E-5,0.005065302596885775
191,844.3153502043576,2.6389229421126486E-5,0.005091691826306901
192,843.163826764208,2.6377976800196218E-5,0.005118069803107098
193,842.0216971979019,2.6171872512122648E-5,0.00514424167561922
194,840.9040466853489,2.6228819879789182E-5,0.00517047049549901
195,839.7802758720294,2.626808727577925E-5,0.005196738582774789
196,838.6486348759181,2.6242087109688536E-5,0.005222980669884477
197,837.5181875350468,2.6157638461204455E-5,0.005249138308345682
198,836.394088412047,2.605669431431123E-5,0.005275195002659993
199,835.2573813868923,2.5988206146793896E-5,0.005301183208806787
200,834.1155898546773,2.5916734470130874E-5,0.005327099943276918
201,832.9664918834935,2.589103260959241E-5,0.00535299097588651
202,831.8315956120091,2.6094702735605714E-5,0.0053790856786221156
203,830.6998908007623,2.610708257939107E-5,0.005405192761201507
204,829.5660456072468,2.6043480236556154E-5,0.005431236241438063
205,828.433049412271,2.6025922425407808E-5,0.005457262163863471
206,827.3239019162841,2.5821614674455804E-5,0.0054830837785379265
207,826.2050131466923,2.580975385792708E-5,0.005508893532395854
208,825.0861896068299,2.6078604004968277E-5,0.005534972136400822
209,823.9675668739034,2.611114137650024E-5,0.0055610832777773225
210,822.8403887500311,2.6009703010334714E-5,0.005587092980787657
211,821.7247438418628,2.6096857612563582E-5,0.00561318983840022
212,820.6028649692522,2.6276230838554137E-5,0.0056394660692387745
213,819.4591553252797,2.6306152512994074E-5,0.005665772221751768
214,818.3134653664401,2.647971386479244E-5,0.0056922519356165605
215,817.1949869600483,2.638210007680256E-5,0.005718634035693363
216,816.1030947329643,2.6136099583203857E-5,0.0057447701352765675
217,815.0177909789883,2.6280704486535676E-5,0.0057710508397631035
218,813.9051874271614,2.6293203899236864E-5,0.0057973440436623405
219,812.773185012918,2.6332109083126468E-5,0.005823676152745467
220,811.6613108118397,2.644175763338739E-5,0.005850117910378855
221,810.5645172738067,2.642204120055328E-5,0.005876539951579408
222,809.4494610213251,2.6306038655132594E-5,0.0059028459902345405
223,808.3441915561133,2.6227649357329993E-5,0.005929073639591871
224,807.2462501192424,2.610902203288453E-5,0.005955182661624756
225,806.1381404315787,2.5944630899748447E-5,0.005981127292524504
226,805.0662872652999,2.6172534659676683E-5,0.00600729982718418
227,804.0197137926045,2.6479305864181586E-5,0.006033779133048362
228,802.9744229557384,2.66672983925769E-5,0.006060446431440939
229,801.9485520898642,2.6750746651573024E-5,0.006087197178092512
230,800.9271112009341,2.6420792503667604E-5,0.00611361797059618
231,799.8834873627721,2.675346506069852E-5,0.006140371435656878
232,798.8389107774515,2.650220874972077E-5,0.006166873644406599
233,797.7847765325035,2.6651354978108038E-5,0.0061935249993847075
234,796.7190126990885,2.64633732753694E-5,0.006219988372660077
235,795.661946727413,2.624201000682366E-5,0.006246230382666901
236,794.6059484235409,2.632060357457565E-5,0.0062725509862414765
237,793.5682869888068,2.6602150972778367E-5,0.006299153137214255
238,792.5408735788748,2.6562846849935917E-5,0.00632571598406419
239,791.5152210568863,2.642964770861618E-5,0.006352145631772807
240,790.4964163559767,2.665062078384609E-5,0.006378796252556653
241,789.4575785475122,2.6562466711635004E-5,0.006405358719268288
242,788.41863015244,2.673301582745816E-5,0.0064320917350957465
243,787.3626703223016,2.667935597049648E-5,0.0064587710910662425
244,786.3051624498331,2.6652737796078563E-5,0.006485423828862321
245,785.2559511856451,2.646839649018236E-5,0.006511892225352504
246,784.2155256547796,2.655120421907947E-5,0.006538443429571584
247,783.1915539477543,2.6335235118253386E-5,0.006564778664689837
248,782.1824503253089,2.6486641027338842E-5,0.006591265305717176
249,781.1719065001068,2.6464262087229465E-5,0.006617729567804406
250,780.1687719428639,2.6598313517746136E-5,0.006644327881322153
251,779.1533357237631,2.6612818176589327E-5,0.006670940699498742
252,778.1056901187185,2.6386742890754397E-5,0.006697327442389497
253,777.0738620375961,2.6503977513094968E-5,0.006723831419902591
254,776.0416435996962,2.6493907167777806E-5,0.00675032532707037
255,775.0046601388595,2.6725636375778017E-5,0.006777050963446147
256,773.9282810778263,2.6771789427841817E-5,0.006803822752873989
257,772.8262836961937,2.6673117575421265E-5,0.00683049587044941
258,771.7063931759083,2.6832759807213223E-5,0.006857328630256623
259,770.5704379265629,2.674088238010676E-5,0.0068840695126367295
260,769.415333824418,2.6970881560405127E-5,0.006911040394197134
261,768.2664087040248,2.7053694814938986E-5,0.0069380940890120734
262,767.0931151271839,2.7084012347091123E-5,0.006965178101359165
263,765.9451540984354,2.7124298963849E-5,0.006992302400323014
264,764.7751229725433,2.7109501839738565E-5,0.007019411902162752
265,763.6178838444742,2.7176304582362277E-5,0.007046588206745114
266,762.49075366938,2.7276805177694217E-5,0.007073865011922809
267,761.3508140042466,2.7301150208383534E-5,0.007101166162131192
268,760.2079151571854,2.7021056968118348E-5,0.00712818721909931
269,759.024609851505,2.711455007268882E-5,0.007155301769171999
270,757.8446818837185,2.7196326569021782E-5,0.007182498095741021
271,756.6442734608745,2.692378061917005E-5,0.007209421876360191
272,755.4467524920396,2.7142628114043388E-5,0.007236564504474234
273,754.2439691070988,2.7143247227353933E-5,0.0072637077517015885
274,753.0526806117026,2.7074517567347797E-5,0.007290782269268936
275,751.863006740893,2.6887682391146673E-5,0.007317669951660083
276,750.6830058443915,2.70869203111405E-5,0.0073447568719712236
277,749.5046113493958,2.7064197609863433E-5,0.007371821069581087
278,748.3718523243934,2.6728657623227625E-5,0.007398549727204315
279,747.2566834877687,2.670918098686218E-5,0.007425258908191177
280,746.1559100156663,2.6825182309676427E-5,0.007452084090500854
281,745.022554751045,2.6902777775080364E-5,0.007478986868275934
282,743.9029322350326,2.7077834348250078E-5,0.0075060647026241835
283,742.7800624887858,2.7235059332028805E-5,0.007533299761956212
284,741.6696234475389,2.7467565292578724E-5,0.007560767327248791
285,740.6007399644701,2.769168938869442E-5,0.007588459016637485
286,739.5216096877374,2.8081212443222486E-5,0.007616540229080708
287,738.4226047277115,2.7986680218157496E-5,0.007644526909298866
288,737.3264071063968,2.7900296000672253E-5,0.007672427205299538
289,736.2602771258042,2.7806699768919413E-5,0.007700233905068457
290,735.2119828522178,2.7625034397455818E-5,0.007727858939465913
291,734.1362509129631,2.725292460162158E-5,0.007755111864067535
292,733.0238774820604,2.723575237869404E-5,0.0077823476164462285
293,731.8937021669182,2.6975419036856587E-5,0.007809323035483085
294,730.7636520418071,2.6885573294725665E-5,0.00783620860877781
295,729.6491154006744,2.66334830403729E-5,0.007862842091818183
296,728.5138383212515,2.6504196157915363E-5,0.007889346287976098
297,727.3797828154967,2.6460293005302E-5,0.0079158065809814
298,726.2342996050056,2.6353711573763786E-5,0.007942160292555163
299,725.1336265198668,2.6485466613902185E-5,0.007968645759169064
300,724.0294449659385,2.646242795770218E-5,0.007995108187126766
301,722.9127466743904,2.67830210445763E-5,0.008021891208171343
302,721.7711226018249,2.6785344629154124E-5,0.008048676552800497
303,720.6296087038614,2.673214409830297E-5,0.0080754086968988
304,719.441630702043,2.681675500059243E-5,0.008102225451899392
305,718.246783012214,2.7084799904635547E-5,0.008129310251804028
306,717.0506736847994,2.7398913191453805E-5,0.008156709164995482
307,715.8461121139069,2.775562917289097E-5,0.008184464794168374
308,714.6520091821097,2.776346833644508E-5,0.008212228262504818
309,713.4799103961489,2.7818250703387487E-5,0.008240046513208206
