#t,ESS,tempDiff,temp
0,200.00000000000065,0.0,0.0
1,199.99979999999982,1.7250901331715396E-5,1.7250901331715396E-5
2,199.99921247993385,1.734925213060983E-5,3.4600153462325225E-5
3,199.99825655578888,1.7389504101233523E-5,5.1989657563558745E-5
4,199.9969295702355,1.7937349631697886E-5,6.992700719525663E-5
5,199.9952299167568,1.7498038611499866E-5,8.74250458067565E-5
6,199.9931751800485,1.718945964907219E-5,1.0461450545582869E-4
7,199.9907832726467,1.7311517800257703E-5,1.219260232560864E-4
8,199.9881032644686,1.706657180323323E-5,1.3899259505931964E-4
9,199.9851208734933,1.703170220920799E-5,1.5602429726852763E-4
10,199.9819008,1.672805687834938E-5,1.72752354146877E-4
11,199.97836243378413,1.6753968310168854E-5,1.8950632245704586E-4
12,199.97458148082578,1.730656677854153E-5,2.0681288923558738E-4
13,199.97050586658676,1.7079342072142744E-5,2.2389223130773013E-4
14,199.96616277249186,1.7259331948535796E-5,2.4115156325626592E-4
15,199.9616439287705,1.7230577800230238E-5,2.5838214105649616E-4
16,199.9568147257152,1.728328016423982E-5,2.75665421220736E-4
17,199.95173929421367,1.767096367974067E-5,2.9333638490047667E-4
18,199.94653402255787,1.8047151850006173E-5,3.1138353675048286E-4
19,199.94104703696894,1.7608864396053373E-5,3.2899240114653625E-4
20,199.93546559878007,1.695312789003323E-5,3.459455290365695E-4
21,199.92958996970938,1.765392951251583E-5,3.6359945854908535E-4
22,199.92354600171598,1.7704065115704236E-5,3.813035236647896E-4
23,199.91741529544834,1.752549191068688E-5,3.9882901557547647E-4
24,199.911116362163,1.7545227339911347E-5,4.163742429153878E-4
25,199.90467363846238,1.7482502562567296E-5,4.3385674547795507E-4
26,199.89789814537383,1.6849931516628445E-5,4.5070667699458354E-4
27,199.89096775065957,1.747053057834871E-5,4.6817720757293227E-4
28,199.883653144333,1.712736326929894E-5,4.853045708422312E-4
29,199.87596287568556,1.7260979917266763E-5,5.02565550759498E-4
30,199.86809644079423,1.7658321570165443E-5,5.202238723296634E-4
31,199.86013192851587,1.782167613961497E-5,5.380455484692784E-4
32,199.8519156104168,1.800722752997934E-5,5.560527759992577E-4
33,199.84354689569895,1.7405679520282284E-5,5.734584555195399E-4
34,199.83493219887853,1.7324830091369647E-5,5.907832856109096E-4
35,199.8262584588573,1.7076123778188258E-5,6.078594093890978E-4
36,199.81716826952044,1.6870708338270972E-5,6.247301177273688E-4
37,199.80784918934955,1.6769130531992453E-5,6.414992482593612E-4
38,199.79837608645136,1.693760362880469E-5,6.584368518881659E-4
39,199.78887093338628,1.7362975560335874E-5,6.757998274485018E-4
40,199.77895196296427,1.707050253470803E-5,6.928703299832099E-4
41,199.76900669693865,1.675668894169348E-5,7.096270189249033E-4
42,199.75884735472053,1.6765123649722137E-5,7.263921425746255E-4
43,199.74835763222637,1.6958590957405545E-5,7.433507335320311E-4
44,199.7380621882236,1.6780761468819553E-5,7.601314950008506E-4
45,199.72785309958337,1.636427077819736E-5,7.764957657790479E-4
46,199.7174385246522,1.6343972948600717E-5,7.928397387276486E-4
47,199.70690365000482,1.651697672470441E-5,8.093567154523531E-4
48,199.6963662041152,1.6487980270757904E-5,8.25844695723111E-4
49,199.68563593211684,1.6394819160024754E-5,8.422395148831357E-4
50,199.6746518406025,1.665104346932249E-5,8.588905583524582E-4
51,199.66351982908145,1.6520488181028955E-5,8.754110465334871E-4
52,199.65221997163246,1.663313524778952E-5,8.920441817812766E-4
53,199.6411276733115,1.6850898396703418E-5,9.0889508017798E-4
54,199.62965871175038,1.7133444476105237E-5,9.260285246540852E-4
55,199.61844016590675,1.7436460207441762E-5,9.434649848615269E-4
56,199.60688929876574,1.768657892027811E-5,9.61151563781805E-4
57,199.59536078573808,1.867674287527273E-5,9.798283066570778E-4
58,199.58370543790426,1.855225445383653E-5,9.983805611109143E-4
59,199.57191795663323,1.92554941865574E-5,0.0010176360552974718
60,199.56011930445317,1.872635927174383E-5,0.0010363624145692156
61,199.54848292121935,1.8433240886321908E-5,0.0010547956554555376
62,199.53669758398172,1.8477681440790917E-5,0.0010732733368963286
63,199.52462999481565,1.8467678428070407E-5,0.0010917410153243989
64,199.51215742297836,1.8649467335635943E-5,0.001110390482660035
65,199.49939296616853,1.9001457162262002E-5,0.001129391939822297
66,199.48655047114812,1.8415375552531912E-5,0.001147807315374829
67,199.4731409992011,1.8323976190922856E-5,0.0011661312915657517
68,199.45970637130097,1.8798111675618956E-5,0.0011849294032413708
69,199.44619408331462,1.9013055926594237E-5,0.001203942459167965
70,199.43261890428118,1.8493370294148958E-5,0.001222435829462114
71,199.4186470995833,1.814705170427073E-5,0.0012405828811663847
72,199.40447035022777,1.814859590956946E-5,0.0012587314770759542
73,199.389943177978,1.812813129276208E-5,0.0012768596083687163
74,199.37516545455046,1.9182640276678475E-5,0.0012960422486453947
75,199.36098934640776,1.9297663289160977E-5,0.0013153399119345557
76,199.34675067486975,1.8671260618222696E-5,0.0013340111725527785
77,199.3316797816461,1.857288400682649E-5,0.0013525840565596049
78,199.31688909170677,1.8261479586669687E-5,0.0013708455361462746
79,199.30132985498742,1.810276396421749E-5,0.001388948300110492
80,199.28569759369185,1.7890229304529744E-5,0.001406838529415022
81,199.26954604454738,1.7466365418403285E-5,0.0014243048948334252
82,199.25388374920985,1.751811350096192E-5,0.001441823008334387
83,199.2377124723199,1.7686829457834153E-5,0.0014595098377922211
84,199.22274743045122,1.80940810514906E-5,0.0014776039188437117
85,199.2071415540657,1.7683618151976437E-5,0.001495287536995688
86,199.1917062821954,1.756509619671658E-5,0.0015128526331924046
87,199.17575414394503,1.772521310637379E-5,0.0015305778462987784
88,199.16007672047544,1.7430687264839955E-5,0.0015480085335636184
89,199.14423009896635,1.7668845457270773E-5,0.0015656773790208892
90,199.1280541541934,1.7866115693790483E-5,0.0015835434947146798
91,199.1121028256907,1.762873610880548E-5,0.0016011722308234852
92,199.09577271976673,1.7780237837012894E-5,0.001618952468660498
93,199.07902261330884,1.8046376047020003E-5,0.001636998844707518
94,199.0622131799507,1.775771965802862E-5,0.0016547565643655468
95,199.04454915369357,1.762983685935158E-5,0.0016723864012248985
96,199.02789758188715,1.7434513747006084E-5,0.0016898209149719045
97,199.0111542864096,1.7461160218401535E-5,0.001707282075190306
98,198.994262268482,1.7864918768413174E-5,0.0017251469939587193
99,198.97762603540082,1.7486792383717294E-5,0.0017426337863424366
100,198.9606143224639,1.7526232008538644E-5,0.0017601600183509752
101,198.94336225714258,1.7900022250331187E-5,0.0017780600406013063
102,198.92614335086873,1.7272015385964665E-5,0.001795332055987271
103,198.90881163107727,1.7158552323128037E-5,0.001812490608310399
104,198.89037607688783,1.767504705048726E-5,0.0018301656553608861
105,198.87184792338138,1.7282247693045807E-5,0.0018474479030539319
106,198.85347927239056,1.713680734061637E-5,0.0018645847103945482
107,198.83514195982596,1.6819954988450406E-5,0.0018814046653829986
108,198.8165743983417,1.6218373522657624E-5,0.0018976230389056562
109,198.79781546021482,1.56703912527925E-5,0.0019132934301584487
110,198.77919037373914,1.5955099961844194E-5,0.0019292485301202929
111,198.762015170266,1.6232082301121667E-5,0.0019454806124214144
112,198.74510968140322,1.6323270108250656E-5,0.001961803882529665
113,198.72891833846515,1.6632565305307027E-5,0.001978436447834972
114,198.7123086090111,1.5586901702187858E-5,0.0019940233495371598
115,198.69540877421292,1.548805577024548E-5,0.002009511405307405
116,198.67828427657318,1.5621849377647096E-5,0.0020251332546850523
117,198.6613560193959,1.5694158490493965E-5,0.002040827413175546
118,198.64547607212572,1.6198733695552995E-5,0.002057026146871099
119,198.62946902630415,1.6293897101507593E-5,0.002073320043972607
120,198.6144992159074,1.5918784483982985E-5,0.00208923882845659
121,198.59892752012013,1.5959949602850564E-5,0.0021051987780594406
122,198.5832917342914,1.5977092694716228E-5,0.002121175870754157
123,198.5670909917367,1.5754743467098244E-5,0.0021369306142212554
124,198.55045031732888,1.6348041226316028E-5,0.0021532786554475714
125,198.5343574795788,1.6319820483218646E-5,0.00216959847593079
126,198.51775737858566,1.647639574884033E-5,0.0021860748716796305
127,198.5017114633377,1.6511784096578635E-5,0.0022025866557762092
128,198.48448257718462,1.6263821504488435E-5,0.0022188504772806977
129,198.46685109955342,1.6076585347039844E-5,0.0022349270626277375
130,198.44960175291592,1.616191229112681E-5,0.0022510889749188644
131,198.43250016299524,1.613745493789119E-5,0.0022672264298567554
132,198.41519628056722,1.661381977644268E-5,0.0022838402496331983
133,198.39755474424075,1.6550227423337103E-5,0.0023003904770565356
134,198.3802119133707,1.6595314870929954E-5,0.0023169857919274656
135,198.361870471225,1.6231144133756485E-5,0.002333216936061222
136,198.34352296442643,1.6333054341939793E-5,0.0023495499904031616
137,198.32535268162442,1.6452610330847227E-5,0.002366002600734009
138,198.30680799729095,1.5884582715724414E-5,0.0023818871834497333
139,198.28782531335145,1.632498444183804E-5,0.0023982121678915716
140,198.2693172262273,1.6375851732316425E-5,0.002414588019623888
141,198.2514336949442,1.6171927051378065E-5,0.002430759946675266
142,198.233627886342,1.6432624915023585E-5,0.00244719257159029
143,198.2145895708172,1.6461221928407025E-5,0.0024636537935186966
144,198.1960508299715,1.624316143259911E-5,0.0024798969549512957
145,198.17716069755002,1.5886109019878144E-5,0.002495783063971174
146,198.15834745741583,1.534886871394561E-5,0.0025111319326851195
147,198.14041506609854,1.5154468806873812E-5,0.0025262864014919933
148,198.12231572538667,1.5241363789197273E-5,0.0025415277652811904
149,198.1041937597998,1.5343321695053502E-5,0.002556871086976244
150,198.0851092221691,1.5094832327314365E-5,0.0025719659193035585
151,198.0661193806695,1.526163350835112E-5,0.0025872275528119096
152,198.04689362311294,1.5919457905925482E-5,0.002603147010717835
153,198.02773627099083,1.6275007593122012E-5,0.002619422018310957
154,198.00907899799307,1.624905077032202E-5,0.002635671069081279
155,197.9906239363103,1.5674725548422045E-5,0.002651345794629701
156,197.97201535867876,1.5796996811343777E-5,0.0026671427914410446
157,197.95362625803668,1.5627942581514913E-5,0.0026827707340225594
158,197.93442394927746,1.575733619856136E-5,0.002698528070221121
159,197.9155486450632,1.5396482352777067E-5,0.002713924552573898
160,197.8965900269659,1.5674813396929837E-5,0.002729599365970828
161,197.87790226455428,1.5466599134610262E-5,0.0027450659651054384
162,197.85894140878673,1.5236090554789498E-5,0.002760302055660228
163,197.8400977611439,1.531639535653847E-5,0.002775618451016766
164,197.82138132858057,1.4958671690765474E-5,0.0027905771227075315
165,197.80213046272513,1.5173399328499989E-5,0.0028057505220360312
166,197.78275827229527,1.5280211000177304E-5,0.0028210307330362085
167,197.76468529921297,1.4971751675194007E-5,0.0028360024847114028
168,197.7466188364259,1.554297845872692E-5,0.00285154546317013
169,197.7281745836626,1.582466232654829E-5,0.0028673701254966783
170,197.70846105122072,1.5864775098609478E-5,0.0028832349005952877
171,197.6893430748836,1.594384099791476E-5,0.0028991787415932023
172,197.6703395640645,1.651839886188626E-5,0.0029156971404550886
173,197.64925832893198,1.6289830817087866E-5,0.0029319869712721765
174,197.62821032391363,1.6496149254229624E-5,0.002948483120526406
175,197.60607576290056,1.7058572356208877E-5,0.002965541692882615
176,197.5833960946497,1.7342915621400616E-5,0.0029828846085040157
177,197.5608489999256,1.6611294497261352E-5,0.002999495903001277
178,197.53856805020303,1.6224351767578305E-5,0.0030157202547688553
179,197.51558760456007,1.603576119966278E-5,0.003031756015968518
180,197.4917133292322,1.669353658194583E-5,0.003048449552550464
181,197.46800037193583,1.606747441867053E-5,0.0030645170269691345
182,197.4436878113765,1.601826460468817E-5,0.0030805352915738225
183,197.4191530630497,1.583458312993783E-5,0.0030963698747037602
184,197.39576422039437,1.599410528341268E-5,0.003112363979987173
185,197.37271464867396,1.630520206201701E-5,0.00312866918204919
186,197.35003781513726,1.6243314835387897E-5,0.003144912496884578
187,197.32660671749608,1.6114423558381485E-5,0.003161026920442959
188,197.3029226515092,1.572026024387014E-5,0.0031767471806868294
189,197.27894488081733,1.5896803804027826E-5,0.003192643984490857
190,197.25501433190794,1.5739347726771086E-5,0.0032083833322176284
191,197.23160381203942,1.5604458189443053E-5,0.0032239877904070716
192,197.2081895794354,1.570296094621136E-5,0.003239690751353283
193,197.18425616987622,1.582775130548048E-5,0.0032555185026587634
194,197.16064736574825,1.6074020249574084E-5,0.0032715925229083375
195,197.13648290565374,1.5628451910442536E-5,0.00328722097481878
196,197.11245784454823,1.5721164739912905E-5,0.003302942139558693
197,197.08845351653028,1.579347616754065E-5,0.0033187356157262336
198,197.06415497253323,1.5843396735144988E-5,0.0033345790124613786
199,197.03966244306167,1.5711446144292804E-5,0.0033502904586056714
200,197.01755418153365,1.5411708773757894E-5,0.0033657021673794293
201,196.9944337935842,1.5505130788767574E-5,0.003381207298168197
202,196.97168605680426,1.5285500200682398E-5,0.0033964927983688793
203,196.94928956206843,1.5172054959796227E-5,0.0034116648533286755
204,196.92652925280393,1.5179003924231054E-5,0.0034268438572529064
205,196.90419369748986,1.5389195087045596E-5,0.003442233052339952
206,196.8812709424651,1.5743480776227584E-5,0.00345797653311618
207,196.86010306140787,1.5589317142166447E-5,0.0034735658502583464
208,196.8378970745809,1.5712821231162258E-5,0.0034892786714895087
209,196.81588368857348,1.5901075046498654E-5,0.0035051797465360073
210,196.79541426917922,1.5742427236862156E-5,0.0035209221737728695
211,196.77585665104365,1.5841384942384297E-5,0.003536763558715254
212,196.75518233933494,1.5898677769595933E-5,0.0035526622364848498
213,196.7344426224951,1.599072198243412E-5,0.0035686529584672837
214,196.71286007209227,1.5928033097064417E-5,0.003584580991564348
215,196.69112681999505,1.6053607987825118E-5,0.0036006345995521732
216,196.6690489092896,1.5709229329268677E-5,0.003616343828881442
217,196.64681096159168,1.5675027519753154E-5,0.003632018856401195
218,196.6248262703557,1.59782130114474E-5,0.0036479970694126423
219,196.60297294582827,1.6458586180673795E-5,0.0036644556555933162
220,196.58128702223158,1.5968819499735416E-5,0.0036804244750930516
221,196.55877996849034,1.6063796539384404E-5,0.003696488271632436
222,196.53611324378363,1.6026835867773914E-5,0.00371251510750021
223,196.51286738513255,1.5820889247932987E-5,0.003728335996748143
224,196.4890182819677,1.6286724315421375E-5,0.0037446227210635643
225,196.46565675315577,1.6504357970413877E-5,0.003761127079033978
226,196.4416873021434,1.631171767510674E-5,0.0037774387967090847
227,196.41802051232668,1.6419227323395523E-5,0.00379385802403248
228,196.39637238943843,1.648561365861993E-5,0.0038103436376911003
229,196.37451571118478,1.669450180212827E-5,0.0038270381394932287
230,196.35304450011097,1.6716329848947354E-5,0.003843754469342176
231,196.33235611095643,1.673954546844528E-5,0.003860494014810621
232,196.31261423392743,1.6814874154535326E-5,0.003877308888965156
233,196.2923341147406,1.6896320858953643E-5,0.00389420520982411
234,196.27101490388142,1.6752058359674618E-5,0.003910957268183785
235,196.25014893577472,1.6652989939353153E-5,0.003927610258123138
236,196.2281884705863,1.666283296889248E-5,0.0039442730910920305
237,196.20563725805695,1.6894443183507587E-5,0.003961167534275538
238,196.18200753735871,1.6321957336918935E-5,0.003977489491612456
239,196.15893288311926,1.629056367820759E-5,0.003993780055290664
240,196.13479418002834,1.6401923905987412E-5,0.0040101819791966515
241,196.11113618039084,1.611727535909919E-5,0.00402629925455575
242,196.08767833221486,1.6296610042062084E-5,0.004042595864597812
243,196.06435331910677,1.639710756349574E-5,0.004058992972161308
244,196.03963400811512,1.6222863045332528E-5,0.004075215835206641
245,196.01486106646684,1.6416312265853037E-5,0.004091632147472494
246,195.99017169007877,1.6422573807698997E-5,0.0041080547212801926
247,195.9664754095579,1.635089553764517E-5,0.0041244056168178375
248,195.94352392635543,1.6471118996107725E-5,0.004140876735813945
249,195.9209148800055,1.6197611999323538E-5,0.004157074347813269
250,195.89764011969785,1.6581668066152616E-5,0.0041736560158794215
251,195.8747245935662,1.595477461439688E-5,0.004189610790493819
252,195.85262008404564,1.6498778215192554E-5,0.004206109568709011
253,195.83042023229845,1.6746099030093467E-5,0.004222855667739105
254,195.80721620257276,1.682292454304213E-5,0.004239678592282147
255,195.78434789748894,1.6694492709027413E-5,0.004256373084991175
256,195.76255414788403,1.6616134274892144E-5,0.004272989219266067
257,195.73987480966522,1.6569522333506085E-5,0.004289558741599573
258,195.71745924073392,1.648130394950438E-5,0.004306040045549077
259,195.6948381368598,1.606977783356674E-5,0.004322109823382644
260,195.67281641259046,1.6028842460651113E-5,0.0043381386658432955
261,195.65137850464774,1.6515231222889312E-5,0.004354653897066185
262,195.62966999992028,1.660323288156556E-5,0.00437125712994775
263,195.6082925163132,1.5948073340515766E-5,0.004387205203288266
264,195.5860923436833,1.550502564495555E-5,0.004402710228933222
265,195.56363057313814,1.5355017463514766E-5,0.004418065246396737
266,195.54049184352309,1.5375554470804615E-5,0.004433440800867542
267,195.51728912077562,1.540476381940974E-5,0.004448845564686952
268,195.49244520501375,1.5237285089471282E-5,0.004464082849776423
269,195.46674730801237,1.5267153860745052E-5,0.004479350003637168
270,195.44148669176096,1.5134374455499617E-5,0.004494484378092667
271,195.4176906935982,1.5156580161419504E-5,0.004509640958254087
272,195.3946859471981,1.4739341401755294E-5,0.004524380299655842
273,195.3720513606405,1.4999328618327054E-5,0.004539379628274169
274,195.35012013666412,1.5300907104947477E-5,0.004554680535379117
275,195.32643562559826,1.4757835620741379E-5,0.004569438370999859
276,195.30235224134773,1.5153572356690418E-5,0.004584591943356549
277,195.2796407943973,1.5234522322718697E-5,0.004599826465679267
278,195.25787067445063,1.5402202398216025E-5,0.004615228668077483
279,195.23587443462827,1.5679250393515563E-5,0.004630907918470998
280,195.21261316879182,1.5670785148413052E-5,0.004646578703619411
281,195.1887573374702,1.5515277418210084E-5,0.004662093981037621
282,195.16521910715582,1.549180678496001E-5,0.004677585787822581
283,195.1421756760071,1.5313080414003673E-5,0.004692898868236585
284,195.1182232909444,1.4767817675584059E-5,0.004707666685912169
285,195.09411114090238,1.4697275190275408E-5,0.004722363961102444
286,195.06877706514675,1.478422649037783E-5,0.004737148187592822
287,195.04398678912554,1.486397237651096E-5,0.004752012159969334
288,195.01952458633605,1.4701892302972478E-5,0.004766714052272306
289,194.99463600081086,1.4373932157154035E-5,0.0047810879844294605
290,194.96977027523212,1.374952266081646E-5,0.004794837507090277
291,194.94502892814316,1.3949869806117267E-5,0.0048087873768963936
292,194.92034077464152,1.3909141442752886E-5,0.004822696518339146
293,194.8963425791744,1.383039358529286E-5,0.0048365269119244395
294,194.87325229382716,1.3941348872859027E-5,0.004850468260797299
295,194.849787795952,1.389399772818153E-5,0.00486436225852548
296,194.8255179313519,1.4045014528215909E-5,0.004878407273053696
297,194.80136189031796,1.4158343717023562E-5,0.00489256561677072
298,194.77790893121306,1.4027114148233217E-5,0.004906592730918953
299,194.75327494161505,1.4229411080517934E-5,0.004920822141999471
300,194.72749492658525,1.4245099346901411E-5,0.004935067241346373
301,194.70168327821273,1.4317651822319378E-5,0.004949384893168692
302,194.6746819354749,1.4198578678398557E-5,0.004963583471847091
303,194.64685273824745,1.4197267391466238E-5,0.004977780739238557
304,194.61859684434094,1.4063166400179716E-5,0.004991843905638737
305,194.58995116116603,1.4394784729096008E-5,0.005006238690367833
