#t,ESS,tempDiff,temp
0,200.00000000000065,0.0,0.0
1,199.9997999999997,6.264725943948528E-6,6.264725943948528E-6
2,199.99920352138378,6.25867267015422E-6,1.2523398614102748E-5
3,199.9982124271861,6.221404431241571E-6,1.874480304534432E-5
4,199.9968350750592,6.163505577100032E-6,2.4908308622444352E-5
5,199.99506948701904,6.261895057487014E-6,3.117020367993137E-5
6,199.9929215311331,6.249700144620018E-6,3.7419903824551384E-5
7,199.99039177528277,6.193463348991886E-6,4.361336717354327E-5
8,199.98748614519542,6.1863871371308336E-6,4.9799754310674105E-5
9,199.98420030618715,6.191681778666226E-6,5.599143608934033E-5
10,199.98053665546146,6.169139410264422E-6,6.216057549960476E-5
11,199.9765076316995,6.23844414632504E-6,6.83990196459298E-5
12,199.97210290700053,6.200807218329533E-6,7.459982686425934E-5
13,199.96734229843466,6.148037428755193E-6,8.074786429301452E-5
14,199.9622178325813,6.095898947369197E-6,8.684376324038372E-5
15,199.95672691604383,6.070504301270028E-6,9.291426754165375E-5
16,199.95088664449608,6.017189921103406E-6,9.893145746275715E-5
17,199.94472285019742,5.952629757808057E-6,1.0488408722056521E-4
18,199.9382244397971,5.996941325602393E-6,1.108810285461676E-4
19,199.9313915954522,6.0112362237915954E-6,1.1689226476995919E-4
20,199.9242170541899,6.0120035903561595E-6,1.2290426836031535E-4
21,199.9166717583473,6.032474213328402E-6,1.2893674257364376E-4
22,199.90882464471017,6.09212180519309E-6,1.3502886437883685E-4
23,199.9005794470485,6.057077057865034E-6,1.410859414367019E-4
24,199.8919520610584,6.089239252024375E-6,1.4717518068872626E-4
25,199.88299797367665,6.029381860907954E-6,1.532045625496342E-4
26,199.8737037670981,5.9762619828707975E-6,1.59180824532505E-4
27,199.86404445368333,6.0723422210759035E-6,1.6525316675358089E-4
28,199.85400454811455,6.079224586879633E-6,1.7133239134046053E-4
29,199.84357709132615,6.075438875795649E-6,1.7740783021625618E-4
30,199.83282272368015,6.137979993252079E-6,1.8354581020950825E-4
31,199.8217374273461,6.088955564298456E-6,1.8963476577380672E-4
32,199.81030263005334,6.095087096135378E-6,1.957298528699421E-4
33,199.79854183891928,6.252277362172992E-6,2.019821302321151E-4
34,199.78650009078638,6.1945426282997326E-6,2.0817667286041484E-4
35,199.77407923106094,6.19453014300876E-6,2.143712030034236E-4
36,199.76137520879016,6.194987847032736E-6,2.2056619085045634E-4
37,199.74835794211822,6.2746167831687845E-6,2.2684080763362514E-4
38,199.73509857678957,6.18799844135544E-6,2.330288060749806E-4
39,199.7215834130924,6.267298773963901E-6,2.3929610484894448E-4
40,199.70777209428127,6.2220294743051105E-6,2.455181343232496E-4
41,199.69377442819845,6.1676181969318756E-6,2.5168575252018145E-4
42,199.67955041204286,6.259578357409951E-6,2.579453308775914E-4
43,199.66488576434406,6.2578969504615305E-6,2.6420322782805294E-4
44,199.6500226707328,6.282052679073016E-6,2.7048528050712593E-4
45,199.63485460999274,6.394092113610903E-6,2.7687937262073684E-4
46,199.61937439887865,6.324424844286936E-6,2.8320379746502375E-4
47,199.603670621186,6.407412680673427E-6,2.896112101456972E-4
48,199.58763200478128,6.378785011344274E-6,2.9598999515704144E-4
49,199.5711777509962,6.323833029452572E-6,3.02313828186494E-4
50,199.55438347405334,6.349496354894224E-6,3.086633245413882E-4
51,199.53729639656913,6.394889515836618E-6,3.150582140572248E-4
52,199.51989314729514,6.3598010646002526E-6,3.2141801512182503E-4
53,199.50221379652973,6.3566145562577065E-6,3.2777462967808276E-4
54,199.48408679577926,6.19878472391985E-6,3.339734144020026E-4
55,199.46578001045634,6.188491788658318E-6,3.4016190619066093E-4
56,199.4472118179178,6.271035664520924E-6,3.464329418551819E-4
57,199.42852885069024,6.284705136279885E-6,3.5271764699146177E-4
58,199.40963443745002,6.291515528619959E-6,3.5900916252008173E-4
59,199.39058633558025,6.3609426961742315E-6,3.6537010521625596E-4
60,199.37120071339444,6.360684880826748E-6,3.717307900970827E-4
61,199.35161195235372,6.344742482177108E-6,3.7807553257925984E-4
62,199.33185384131951,6.268173609807227E-6,3.8434370618906707E-4
63,199.31182931776232,6.3572291690358855E-6,3.9070093535810294E-4
64,199.29156927474594,6.380158921448728E-6,3.9708109427955164E-4
65,199.27124365983693,6.399706353130115E-6,4.0348080063268174E-4
66,199.25055757016347,6.356794092163912E-6,4.098375947248457E-4
67,199.22951787248644,6.327617436748427E-6,4.161652121615941E-4
68,199.2082675097414,6.4019939251039095E-6,4.22567206086698E-4
69,199.18669296161016,6.290252546588866E-6,4.288574586332869E-4
70,199.16492847386692,6.2598448955431934E-6,4.3511730352883006E-4
71,199.14320313350268,6.319440164401894E-6,4.4143674369323196E-4
72,199.12101909426985,6.248116370717791E-6,4.4768486006394975E-4
73,199.09862519193672,6.30928623141595E-6,4.539941462953657E-4
74,199.07571424654552,6.328386966968685E-6,4.6032253326233434E-4
75,199.05270206257953,6.336445735086409E-6,4.6665897899742073E-4
76,199.0295137133921,6.285732454602785E-6,4.7294471145202353E-4
77,199.00601387967617,6.285411012343186E-6,4.792301224643667E-4
78,198.9824453437691,6.2754756538212094E-6,4.855055981181879E-4
79,198.95870679207093,6.3023654753917E-6,4.918079635935796E-4
80,198.93461751805236,6.200004133365223E-6,4.980079677269449E-4
81,198.9105833479931,6.1968307662381184E-6,5.04204798493183E-4
82,198.88624173366222,6.233387503134797E-6,5.104381859963177E-4
83,198.86160044029796,6.271333501261583E-6,5.167095194975794E-4
84,198.83665441745163,6.1860407970760765E-6,5.228955602946554E-4
85,198.8116993359864,6.21786290977042E-6,5.291134232044258E-4
86,198.78655284683884,6.224623427370639E-6,5.353380466317964E-4
87,198.76135924366895,6.226963285839042E-6,5.415650099176354E-4
88,198.7360184407192,6.152560577518664E-6,5.477175704951541E-4
89,198.7105201020203,6.1712276390682E-6,5.538887981342223E-4
90,198.6849450440527,6.181606182832256E-6,5.600704043170546E-4
91,198.65882027791747,6.216869101930568E-6,5.662872734189852E-4
92,198.63253986065823,6.269368074416786E-6,5.72556641493402E-4
93,198.60583671270808,6.33937564947913E-6,5.788960171428812E-4
94,198.57906195466686,6.372563021701755E-6,5.852685801645829E-4
95,198.55222449008141,6.295329689371067E-6,5.91563909853954E-4
96,198.52525120656227,6.2524841270712986E-6,5.978163939810254E-4
97,198.49805335146726,6.317589011236482E-6,6.041339829922619E-4
98,198.47063895048362,6.292404359909627E-6,6.104263873521716E-4
99,198.44309657485908,6.247010578959558E-6,6.166733979311312E-4
100,198.41542350890217,6.223168684328466E-6,6.228965666154596E-4
101,198.38698194798502,6.216110671214859E-6,6.291126772866745E-4
102,198.35824368306052,6.131926420654596E-6,6.352446037073291E-4
103,198.3294237124181,6.113530619803196E-6,6.413581343271323E-4
104,198.3002022308664,6.046469124143858E-6,6.474046034512761E-4
105,198.27084265256806,5.936672568630449E-6,6.533412760199066E-4
106,198.24183137659108,5.971568438303554E-6,6.593128444582102E-4
107,198.21290666526141,5.960050949266535E-6,6.652728954074767E-4
108,198.18359209194873,6.047638772187103E-6,6.713205341796638E-4
109,198.15441099868312,5.993405949097275E-6,6.773139401287611E-4
110,198.12490250452674,5.921619541136703E-6,6.832355596698978E-4
111,198.09518695696022,5.859704367484267E-6,6.89095264037382E-4
112,198.06495937367188,5.864618485725536E-6,6.949598825231076E-4
113,198.03433687427574,5.756372202965039E-6,7.007162547260727E-4
114,198.00346668825702,5.7010240874280955E-6,7.064172788135008E-4
115,197.9726491444378,5.764345434166389E-6,7.121816242476672E-4
116,197.9418636644131,5.779038180282853E-6,7.179606624279501E-4
117,197.9112500528665,5.774324824879862E-6,7.237349872528299E-4
118,197.88074564054213,5.833006110199552E-6,7.295679933630295E-4
119,197.84998943146635,5.829464652833073E-6,7.353974580158626E-4
120,197.81887028604976,5.86069066075645E-6,7.41258148676619E-4
121,197.78782835835472,5.855124660968186E-6,7.471132733375873E-4
122,197.75645659880672,5.83254080638222E-6,7.529458141439695E-4
123,197.72494346766098,5.733284421481377E-6,7.586790985654508E-4
124,197.6931627282192,5.8151668538549414E-6,7.644942654193057E-4
125,197.66099477073718,5.741279099995687E-6,7.702355445193014E-4
126,197.6281337720358,5.730646301721614E-6,7.759661908210229E-4
127,197.595400727669,5.729712491166665E-6,7.816959033121896E-4
128,197.56206765692806,5.773325696399662E-6,7.874692290085893E-4
129,197.5279994024821,5.7465515183505554E-6,7.932157805269398E-4
130,197.4937926771938,5.78455380994216E-6,7.99000334336882E-4
131,197.459235328191,5.787651898430806E-6,8.047879862353128E-4
132,197.42414881639084,5.831636139975796E-6,8.106196223752885E-4
133,197.38908071089816,5.93455975404885E-6,8.165541821293374E-4
134,197.35411051923373,5.992178995953754E-6,8.225463611252911E-4
135,197.31872762637303,5.993249946243347E-6,8.285396110715344E-4
136,197.28296624214667,6.038549490483424E-6,8.345781605620178E-4
137,197.24657893919067,6.041417927089547E-6,8.406195784891073E-4
138,197.21009222177491,5.9508299285458416E-6,8.465704084176532E-4
139,197.17397188675432,5.867441394801625E-6,8.524378498124547E-4
140,197.1374259860136,5.888982421481115E-6,8.583268322339358E-4
141,197.10113224048442,5.8464731109255105E-6,8.641733053448614E-4
142,197.06474340233504,5.848453935966122E-6,8.700217592808275E-4
143,197.0284209895013,5.872000573468206E-6,8.758937598542957E-4
144,196.99156589478915,5.840203792260318E-6,8.81733963646556E-4
145,196.9544730615635,5.880740187289988E-6,8.87614703833846E-4
146,196.91690816420464,5.853341484294348E-6,8.934680453181404E-4
147,196.8790618023793,5.760494940493854E-6,8.992285402586342E-4
148,196.8405937024113,5.7853505332643435E-6,9.050138907918986E-4
149,196.80255898565605,5.790049150669887E-6,9.108039399425684E-4
150,196.76427398156775,5.7788348988672565E-6,9.165827748414357E-4
151,196.72547643389476,5.761966861630949E-6,9.223447417030667E-4
152,196.6865382632761,5.75036609342384E-6,9.280951077964905E-4
153,196.64727948802872,5.759526644585106E-6,9.338546344410755E-4
154,196.60803408519735,5.731573337600159E-6,9.395862077786757E-4
155,196.56831299212692,5.72519162136509E-6,9.453113994000408E-4
156,196.5283266052255,5.641852222711982E-6,9.509532516227528E-4
157,196.4881600736275,5.620230395143368E-6,9.565734820178963E-4
158,196.44778578561707,5.655999594980244E-6,9.622294816128765E-4
159,196.40676281573027,5.6105399543809605E-6,9.678400215672575E-4
160,196.36582042002874,5.611732572445303E-6,9.734517541397028E-4
161,196.32455355429155,5.716451347521314E-6,9.791682054872241E-4
162,196.28321316837386,5.693339378287992E-6,9.848615448655122E-4
163,196.24218175956713,5.847519146995578E-6,9.907090640125077E-4
164,196.20071771096386,5.847856513044907E-6,9.965569205255527E-4
165,196.15934807269534,5.868009500822438E-6,0.0010024249300263752
166,196.11748544469057,5.956228303379072E-6,0.0010083811583297543
167,196.07547149398061,6.007694503472789E-6,0.0010143888528332272
168,196.0327020258921,6.006168079193945E-6,0.0010203950209124212
169,195.98946010008083,6.086134940047549E-6,0.0010264811558524688
170,195.9457208704884,6.012687084902073E-6,0.001032493842937371
171,195.9019302933497,6.01596068790782E-6,0.0010385098036252787
172,195.857898382034,6.007697921260689E-6,0.0010445175015465393
173,195.81447882394949,6.0996555937274425E-6,0.0010506171571402667
174,195.770637364242,6.1044467848578545E-6,0.0010567216039251246
175,195.7266377459916,6.0827755357018256E-6,0.0010628043794608264
176,195.68264113937022,6.103156012186387E-6,0.0010689075354730127
177,195.63854934151857,6.1011472268226425E-6,0.0010750086826998354
178,195.59456988026116,6.012639631252169E-6,0.0010810213223310875
179,195.55050162246343,5.896712970271948E-6,0.0010869180353013596
180,195.506198956847,5.937482546533819E-6,0.0010928555178478935
181,195.46135707557661,5.865046467435751E-6,0.0010987205643153291
182,195.41665573719175,5.918811531163014E-6,0.001104639375846492
183,195.37172984157164,5.877394072008897E-6,0.001110516769918501
184,195.32731572039603,5.884418621913834E-6,0.0011164011885404148
185,195.28280630090768,5.890095133084519E-6,0.0011222912836734993
186,195.2379327706904,5.850511965239363E-6,0.0011281417956387387
187,195.19273829398404,5.890813741860244E-6,0.001134032609380599
188,195.1472164675345,5.885936738588527E-6,0.0011399185461191876
189,195.10078990604302,5.971785154827415E-6,0.001145890331274015
190,195.05475623795104,6.031959223628232E-6,0.0011519222904976432
191,195.00876263332918,6.013955951019151E-6,0.0011579362464486623
192,194.9629804996312,5.990818222399674E-6,0.001163927064671062
193,194.91683004869623,5.992602184943233E-6,0.0011699196668560053
194,194.87021492125186,6.004618819604809E-6,0.00117592428567561
195,194.82430653065683,5.968008387471425E-6,0.0011818922940630813
196,194.77803211023675,5.969689755131235E-6,0.0011878619838182126
197,194.73168657681063,5.846229604883051E-6,0.0011937082134230955
198,194.6854157104636,5.88571751505833E-6,0.001199593930938154
199,194.63965616267393,5.962223081498683E-6,0.0012055561540196527
200,194.59388307924544,5.97665032633126E-6,0.0012115328043459839
201,194.54811231023984,5.872623798527554E-6,0.0012174054281445113
202,194.5026860203714,5.875966364350349E-6,0.0012232813945088617
203,194.45845537969296,5.806906017607549E-6,0.0012290883005264693
204,194.41363571619752,5.814865880380296E-6,0.0012349031664068495
205,194.3690797340085,5.809468156744847E-6,0.0012407126345635943
206,194.3244505713832,5.813317596576706E-6,0.001246525952160171
207,194.27924013859337,5.8096357300619105E-6,0.001252335587890233
208,194.23350790132662,5.833106947283772E-6,0.0012581686948375168
209,194.18827562125185,5.774323691000471E-6,0.0012639430185285173
210,194.14264699354155,5.754508860111394E-6,0.0012696975273886286
211,194.09764390671558,5.759371845340581E-6,0.0012754568992339693
212,194.05165856931944,5.783144913535592E-6,0.001281240044147505
213,194.00545242775183,5.853239200515304E-6,0.0012870932833480204
214,193.9597173467724,5.817841913259705E-6,0.0012929111252612802
215,193.91370876547293,5.82663725211812E-6,0.0012987377625133982
216,193.86794280978214,5.835122510958642E-6,0.001304572885024357
217,193.82169989221828,5.873108842902756E-6,0.0013104459938672597
218,193.77579000978065,5.768908326293562E-6,0.0013162149021935532
219,193.72931696524626,5.840011802079811E-6,0.001322054913995633
220,193.6824143109743,5.819634500577498E-6,0.0013278745484962104
221,193.63568186601825,5.771030795244443E-6,0.001333645579291455
222,193.58828853310234,5.807344409226239E-6,0.0013394529237006811
223,193.54020175982498,5.951722253424302E-6,0.0013454046459541054
224,193.4919379779416,5.8907290607689434E-6,0.0013512953750148744
225,193.44256702666675,5.890268057014961E-6,0.0013571856430718893
226,193.3936192406932,5.81149859686599E-6,0.0013629971416687552
227,193.34495003450323,5.809241437475729E-6,0.001368806383106231
228,193.29572639257512,5.858756693243887E-6,0.001374665139799475
229,193.24598660468703,5.898827912603827E-6,0.0013805639677120787
230,193.1968033822224,5.863006586388759E-6,0.0013864269742984675
231,193.14751414180597,5.861675684302932E-6,0.0013922886499827705
232,193.09832411774337,5.870354628781046E-6,0.0013981590046115515
233,193.04893801347217,5.884761839159401E-6,0.0014040437664507108
234,192.99912893686488,5.904151874045992E-6,0.0014099479183247569
235,192.9483097906388,5.92681525802555E-6,0.0014158747335827825
236,192.89752632615352,5.9046280895138355E-6,0.0014217793616722965
237,192.84719190883752,5.945855250557703E-6,0.0014277252169228542
238,192.7972733426926,5.880256516001434E-6,0.0014336054734388555
239,192.74701616214662,5.864085812705902E-6,0.0014394695592515614
240,192.69573382741783,5.788901993722495E-6,0.0014452584612452838
241,192.64349286125534,5.836931248180259E-6,0.001451095392493464
242,192.5907561455773,5.853077090977759E-6,0.0014569484695844419
243,192.5381758955172,5.829126401199722E-6,0.0014627775959856417
244,192.48631219447935,5.983277982608053E-6,0.0014687608739682497
245,192.43476294045584,5.992511375389898E-6,0.0014747533853436397
246,192.38365718120707,5.970233689903078E-6,0.0014807236190335427
247,192.33161447592153,6.0610780821901235E-6,0.0014867846971157329
248,192.27948507887325,6.0410672978132566E-6,0.001492825764413546
249,192.22731104804691,6.0340945962555785E-6,0.0014988598590098016
250,192.1751547464577,6.017512531408206E-6,0.0015048773715412099
251,192.12300912019046,5.954712931567924E-6,0.0015108320844727779
252,192.07084431600506,5.958187051324102E-6,0.0015167902715241019
253,192.0184321898621,5.8930142399048775E-6,0.0015226832857640068
254,191.96527451108122,5.962656879738051E-6,0.0015286459426437449
255,191.91183858364633,6.056164951318887E-6,0.0015347021075950637
256,191.85858802096803,6.08574715180692E-6,0.0015407878547468706
257,191.80591648852752,6.011990480162531E-6,0.001546799845227033
258,191.7527770651077,6.034409418518357E-6,0.0015528342546455515
259,191.69877175974267,5.9633401801185836E-6,0.00155879759482567
260,191.643649896968,6.0077396421419395E-6,0.001564805334467812
261,191.58807356148918,5.942486410009725E-6,0.0015707478208778218
262,191.53314633119982,5.974635796808258E-6,0.00157672245667463
263,191.47694956029375,5.964996037162488E-6,0.0015826874527117925
264,191.42038327100897,5.926529838299622E-6,0.001588613982550092
265,191.36368308500602,5.859583940239685E-6,0.0015944735664903318
266,191.30679114011411,5.923616044571395E-6,0.0016003971825349031
267,191.25024143705343,5.912011165189577E-6,0.0016063091937000926
268,191.19420394119692,6.059062498404829E-6,0.0016123682561984974
269,191.13689850047874,6.037090240801927E-6,0.0016184053464392994
270,191.07927717991853,6.022381388185843E-6,0.0016244277278274852
271,191.02175990568875,6.014885830939213E-6,0.0016304426136584244
272,190.96403129361798,6.005786751182868E-6,0.0016364484004096071
273,190.905303759442,6.086434790239748E-6,0.001642534835199847
274,190.8468332754494,6.118691494937516E-6,0.0016486535266947845
275,190.7894476290554,6.07935103082867E-6,0.0016547328777256132
276,190.73121221664184,6.044867035469501E-6,0.0016607777447610827
277,190.67444362822025,6.088371599523639E-6,0.0016668661163606064
278,190.61740303081888,6.053629747507432E-6,0.0016729197461081138
279,190.56021279350927,6.057795451807146E-6,0.001678977541559921
280,190.5029658043638,6.09541400163128E-6,0.0016850729555615523
281,190.44649363539324,6.112801988864986E-6,0.0016911857575504174
282,190.38939731164342,6.131515104546568E-6,0.001697317272654964
283,190.33275529327645,6.10206923740498E-6,0.0017034193418923689
284,190.27535877979557,6.060926420434095E-6,0.001709480268312803
285,190.21766757472002,6.0712425515951705E-6,0.0017155515108643981
286,190.15914670070063,6.037882438099778E-6,0.001721589393302498
287,190.1001645494632,5.896150893820166E-6,0.0017274855441963182
288,190.0409714854256,6.011620419667257E-6,0.0017334971646159854
289,189.98150243495587,5.912291110454022E-6,0.0017394094557264394
290,189.92191224926884,5.9030889370915756E-6,0.001745312544663531
291,189.8620164296367,5.901542777811245E-6,0.0017512140874413422
292,189.80235428322808,5.819447066583658E-6,0.0017570335345079258
293,189.74270122175687,5.8140686571848676E-6,0.0017628476031651106
294,189.6836347418105,5.949757265709367E-6,0.00176879736043082
295,189.62427751530925,5.872228645040969E-6,0.001774669589075861
296,189.5644413609903,5.799051351512919E-6,0.001780468640427374
297,189.50460047178356,5.6716210340105565E-6,0.0017861402614613845
298,189.44411056555035,5.6330337765865E-6,0.001791773295237971
299,189.3831053585021,5.598618415700578E-6,0.0017973719136536715
300,189.32065798846818,5.533081960856463E-6,0.001802904995614528
301,189.2578242251325,5.520609808530407E-6,0.0018084256054230585
302,189.1946307477976,5.583746575728521E-6,0.001814009351998787
303,189.13134487116878,5.566132797618282E-6,0.0018195754847964052
304,189.0670328859438,5.548048993337079E-6,0.0018251235337897423
305,189.0023352121505,5.5698957607674395E-6,0.0018306934295505097
306,188.93689463670955,5.5990836567231005E-6,0.0018362925132072328
307,188.8721526498455,5.580004772190453E-6,0.0018418725179794233
