#t,ESS,tempDiff,temp
0,100.00000000000006,0.0,0.0
1,99.99882657366493,1.4121044033800024E-5,1.4121044033800024E-5
2,99.99555986910865,1.3731943911991557E-5,2.785298794579158E-5
3,99.99019433858167,1.4315944552480708E-5,4.216893249827229E-5
4,99.98275272663805,1.4309514767106994E-5,5.6478447265379285E-5
5,99.97253318610916,1.4553264364946788E-5,7.103171163032607E-5
6,99.9604680702257,1.4281438917078739E-5,8.531315054740481E-5
7,99.9467601938685,1.4043802817235802E-5,9.935695336464061E-5
8,99.93069379018385,1.4334896041923699E-5,1.1369184940656431E-4
9,99.912483072898,1.4162205076296356E-5,1.2785405448286066E-4
10,99.8927733613524,1.4290827291613392E-5,1.4214488177447405E-4
11,99.87239780811342,1.3549755806552984E-5,1.5569463758102704E-4
12,99.85008406245869,1.3535921160306185E-5,1.6923055874133323E-4
13,99.82575832150081,1.356816560904631E-5,1.8279872435037956E-4
14,99.8009110031776,1.3301066878663796E-5,1.9609979122904336E-4
15,99.77368081357008,1.3355724591815854E-5,2.0945551582085922E-4
16,99.7450738119312,1.3521853279631102E-5,2.2297736910049031E-4
17,99.71574100086416,1.3094275216537301E-5,2.3607164431702763E-4
18,99.68354960353554,1.3368210079211585E-5,2.494398543962392E-4
19,99.6485043381845,1.3504500991430417E-5,2.6294435538766963E-4
20,99.61184173713598,1.3239497795925428E-5,2.7618385318359506E-4
21,99.57219841203285,1.3809775159646892E-5,2.8999362834324197E-4
22,99.53127453476222,1.370067057379979E-5,3.0369429891704175E-4
23,99.49066815199824,1.3412921540632449E-5,3.171072204576742E-4
24,99.45163244496773,1.3385002160919411E-5,3.3049222261859364E-4
25,99.4125131224577,1.3715237752027028E-5,3.4420746037062066E-4
26,99.37067812271627,1.364086043196146E-5,3.578483208025821E-4
27,99.32953151812941,1.3632526286467266E-5,3.714808470890494E-4
28,99.28530948078344,1.372519057527883E-5,3.852060376643282E-4
29,99.2390390116146,1.3917957750540355E-5,3.9912399541486857E-4
30,99.19274050338937,1.3659029798790972E-5,4.1278302521365956E-4
31,99.14484596015198,1.3932255585738258E-5,4.267152807993978E-4
32,99.0969040881518,1.383153118821499E-5,4.4054681198761283E-4
33,99.04856735284214,1.3768447222049244E-5,4.543152592096621E-4
34,98.99798150292253,1.4177293649740659E-5,4.684925528594028E-4
35,98.94669916847765,1.412032673697909E-5,4.826128795963819E-4
36,98.89364503706594,1.3784294977624965E-5,4.963971745740068E-4
37,98.84013653208737,1.4030748703872025E-5,5.104279232778789E-4
38,98.78526260141184,1.4212293233952836E-5,5.246402165118317E-4
39,98.72821205244777,1.4065984220889255E-5,5.387062007327209E-4
40,98.6696553851851,1.383157198052688E-5,5.525377727132479E-4
41,98.60885145274382,1.394966001076915E-5,5.66487432724017E-4
42,98.54803131590593,1.3621134820362257E-5,5.801085675443792E-4
43,98.48831928810381,1.3524975886118447E-5,5.936335434304976E-4
44,98.42549278840235,1.40407515664604E-5,6.076742949969581E-4
45,98.36484648327149,1.3652389827000394E-5,6.213266848239585E-4
46,98.30190588847599,1.3787275194626652E-5,6.351139600185851E-4
47,98.23797683229272,1.3907580058215425E-5,6.490215400768005E-4
48,98.17262316317515,1.3816388686796226E-5,6.628379287635967E-4
49,98.10674570250167,1.3756218123577158E-5,6.765941468871738E-4
50,98.04002682480112,1.3710392077050667E-5,6.903045389642245E-4
51,97.97413801829516,1.3709077966219513E-5,7.04013616930444E-4
52,97.90894183212248,1.3490925468018629E-5,7.175045423984626E-4
53,97.84480241649597,1.321516789166435E-5,7.30719710290127E-4
54,97.77894813748796,1.3521874459401538E-5,7.442415847495285E-4
55,97.71232574290235,1.3616103699098848E-5,7.578576884486273E-4
56,97.63811720298449,1.4209977362543869E-5,7.720676658111711E-4
57,97.56581970321955,1.3983709213547683E-5,7.860513750247188E-4
58,97.49249380038634,1.4028744551163748E-5,8.000801195758826E-4
59,97.42196512986224,1.3803967239567582E-5,8.138840868154502E-4
60,97.34999072251634,1.3548459941328438E-5,8.274325467567786E-4
61,97.27620322242184,1.3639743282958144E-5,8.410722900397368E-4
62,97.20279021460125,1.3375883418143239E-5,8.544481734578801E-4
63,97.13652670703904,1.314623857151135E-5,8.675944120293914E-4
64,97.06890181768887,1.2826422563956457E-5,8.804208345933478E-4
65,97.0016508404282,1.2923418805012813E-5,8.933442533983606E-4
66,96.93378815136121,1.3181777149499957E-5,9.065260305478605E-4
67,96.86454014848027,1.3670137991622362E-5,9.201961685394829E-4
68,96.79516273557499,1.37939386254494E-5,9.339901071649323E-4
69,96.72220403895888,1.3864374623448204E-5,9.478544817883805E-4
70,96.65100445518273,1.4059613129776844E-5,9.619140949181573E-4
71,96.57822378143014,1.4252664386657831E-5,9.761667593048152E-4
72,96.5050797405086,1.4363250813982518E-5,9.905300101187976E-4
73,96.43162618372254,1.4137552935844726E-5,0.0010046675630546423
74,96.35964759739456,1.4010985610009682E-5,0.001018678548664652
75,96.29034247531179,1.3954168269294417E-5,0.0010326327169339464
76,96.22215136261312,1.397898733357455E-5,0.0010466117042675208
77,96.15059605946989,1.4052168693545339E-5,0.0010606638729610662
78,96.07814120513798,1.4103096652789728E-5,0.0010747669696138558
79,96.00483638048452,1.3940517000930835E-5,0.0010887074866147866
80,95.92942468259109,1.431087755286647E-5,0.0011030183641676532
81,95.85282927126896,1.4362058217632006E-5,0.0011173804223852852
82,95.77227528248606,1.4499930680109962E-5,0.001131880353065395
83,95.68775107302939,1.4550890081034965E-5,0.0011464312431464301
84,95.6028473258376,1.4611423043308796E-5,0.001161042666189739
85,95.52396000132535,1.42104419297629E-5,0.0011752531081195019
86,95.44432163366838,1.415194491973967E-5,0.0011894050530392416
87,95.36389106876902,1.4259994089893424E-5,0.001203665047129135
88,95.28930893016724,1.3891790056150289E-5,0.0012175568371852854
89,95.2137725729082,1.3765453002153834E-5,0.0012313222901874392
90,95.1394150034163,1.3356126574601868E-5,0.001244678416762041
91,95.06767109369666,1.3210550491866247E-5,0.0012578889672539074
92,94.99657426187898,1.3044620695981091E-5,0.0012709335879498886
93,94.92697248150965,1.2999260422341996E-5,0.0012839328483722305
94,94.85123910902567,1.3425234604260487E-5,0.001297358082976491
95,94.77202808602753,1.3078636910279882E-5,0.001310436719886771
96,94.69738500890563,1.2975562471991377E-5,0.0013234122823587624
97,94.62903305159739,1.2847031084984066E-5,0.0013362593134437464
98,94.56394694267482,1.3011750559117918E-5,0.0013492710640028644
99,94.49899080004236,1.2692091640924451E-5,0.0013619631556437888
100,94.43153727220162,1.2744595105339067E-5,0.0013747077507491278
101,94.36525605415605,1.2651135482832025E-5,0.0013873588862319598
102,94.30085859293666,1.2570528401361059E-5,0.0013999294146333208
103,94.23898385688585,1.2343795034317421E-5,0.0014122732096676382
104,94.17672132527767,1.2374671383404631E-5,0.001424647881051043
105,94.11400312179978,1.242309494365063E-5,0.0014370709759946936
106,94.05170476167791,1.2491814426435845E-5,0.0014495627904211295
107,93.9893095022759,1.2597642814094215E-5,0.0014621604332352238
108,93.92962344141226,1.2618084425264551E-5,0.0014747785176604884
109,93.87035865433636,1.276007459768719E-5,0.0014875385922581755
110,93.81038170014932,1.3010935998339337E-5,0.0015005495282565148
111,93.74996685159277,1.3214213905407561E-5,0.0015137637421619224
112,93.68691983589682,1.3169030760446005E-5,0.0015269327729223684
113,93.62536416594591,1.328948391700303E-5,0.0015402222568393715
114,93.56013149695129,1.3200227130224365E-5,0.001553422483969596
115,93.49663261815422,1.3026319798322311E-5,0.0015664488037679183
116,93.43092317262477,1.3143864666739478E-5,0.0015795926684346578
117,93.3572647277741,1.3234324226753358E-5,0.001592826992661411
118,93.28769026578696,1.272170345848074E-5,0.0016055486961198918
119,93.22003413164461,1.295396320781912E-5,0.0016185026593277109
120,93.15257774566138,1.3195024274235926E-5,0.0016316976836019468
121,93.08200273589755,1.3311565612724346E-5,0.0016450092492146713
122,93.01242773331546,1.3133324843868228E-5,0.0016581425740585395
123,92.9464966570196,1.3175667613320177E-5,0.0016713182416718596
124,92.88289326644093,1.3423184052522653E-5,0.0016847414257243822
125,92.8178965690144,1.3810659124308595E-5,0.0016985520848486909
126,92.7568378991979,1.377732847204744E-5,0.0017123294133207384
127,92.70097122987784,1.4026275045412543E-5,0.001726355688366151
128,92.641054058623,1.4053040888809827E-5,0.0017404087292549608
129,92.57841658148617,1.3986507382183509E-5,0.0017543952366371443
130,92.51445094637164,1.4043378068148295E-5,0.0017684386147052925
131,92.44858136613686,1.4264555862045984E-5,0.0017827031705673385
132,92.38075278643123,1.4173278035984535E-5,0.001796876448603323
133,92.3066302983732,1.3908633098072607E-5,0.0018107850817013957
134,92.23316968102714,1.3731334864473181E-5,0.001824516416565869
135,92.16000418403172,1.3493733289848613E-5,0.0018380101498557176
136,92.08834413255519,1.3398846947429454E-5,0.001851408996803147
137,92.01557112782267,1.3545624796352171E-5,0.0018649546215994994
138,91.94609910313932,1.357678959502597E-5,0.0018785314111945254
139,91.87683853088022,1.3877894390929954E-5,0.0018924093055854554
140,91.80631406213732,1.3725075239529982E-5,0.0019061343808249853
141,91.73649660044052,1.3863466837646505E-5,0.0019199978476626318
142,91.66530974037428,1.423189832709232E-5,0.0019342297459897242
143,91.59832376380096,1.3718138968763075E-5,0.0019479478849584874
144,91.52921481402073,1.3620556279388786E-5,0.001961568441237876
145,91.45955765349424,1.3506283181734959E-5,0.001975074724419611
146,91.38260648548224,1.3508608785126856E-5,0.0019885833332047376
147,91.29622681515987,1.3542885655575274E-5,0.002002126218860313
148,91.2099689548173,1.334818518820809E-5,0.002015474404048521
149,91.12190374289348,1.2966376326036977E-5,0.002028440780374558
150,91.03462545793019,1.2915994363889987E-5,0.0020413567747384477
151,90.94299282218435,1.299007296741649E-5,0.002054346847705864
152,90.85178462448054,1.3086202424815826E-5,0.00206743305013068
153,90.75956793745844,1.3272273577623706E-5,0.0020807053237083036
154,90.66706351254413,1.325556647068228E-5,0.002093960890178986
155,90.58128625657493,1.3278039692304235E-5,0.00210723892987129
156,90.4957568501477,1.3079182972763461E-5,0.0021203181128440535
157,90.4073071504092,1.334223718798809E-5,0.0021336603500320414
158,90.32091855831591,1.2969234091773458E-5,0.002146629584123815
159,90.23213671837009,1.319212589847257E-5,0.0021598217100222876
160,90.14186871651779,1.3308017623734044E-5,0.0021731297276460218
161,90.04573573450311,1.3564977573067185E-5,0.002186694705219089
162,89.94572611763421,1.4915056656501541E-5,0.0022016097618755906
163,89.84884768063506,1.4602883513024946E-5,0.0022162126453886153
164,89.75079211641015,1.471741166867803E-5,0.0022309300570572932
165,89.65631457785337,1.4590760600250726E-5,0.002245520817657544
166,89.55416311392649,1.4746657216317266E-5,0.0022602674748738614
167,89.4477445048512,1.5570946191210972E-5,0.002275838421065072
168,89.33831911412064,1.5498882376589048E-5,0.002291337303441661
169,89.2321985000408,1.526251601810957E-5,0.0023065998194597708
170,89.12408119079141,1.5440236044672677E-5,0.0023220400555044435
171,89.01153062133145,1.5425068625398457E-5,0.002337465124129842
172,88.90186109157341,1.4875660267072103E-5,0.0023523407843969142
173,88.78775865236882,1.5400650355005467E-5,0.00236774143475192
174,88.67145265269708,1.5369906321134795E-5,0.0023831113410730546
175,88.55565882830223,1.5020803282556046E-5,0.0023981321443556107
176,88.44611256656891,1.4685548683773291E-5,0.002412817693039384
177,88.3369721178603,1.4719560419464967E-5,0.002427537253458849
178,88.23559652767072,1.4408425647011988E-5,0.002441945679105861
179,88.13040381112653,1.4650594418162316E-5,0.0024565962735240234
180,88.0309657284913,1.467246297836416E-5,0.0024712687365023877
181,87.93095739887185,1.4139621555377205E-5,0.002485408358057765
182,87.83906880644861,1.3801467372211083E-5,0.002499209825429976
183,87.74383390333544,1.4111875657039127E-5,0.0025133217010870155
184,87.65369345568124,1.3930508452452698E-5,0.002527252209539468
185,87.55822760640652,1.4483461253377314E-5,0.002541735670792845
186,87.46434349015728,1.4354265304275837E-5,0.002556089936097121
187,87.37052181558312,1.436818029672293E-5,0.002570458116393844
188,87.27304718082881,1.4351259293599896E-5,0.002584809375687444
189,87.18300653812396,1.3255275803835732E-5,0.0025980646514912795
190,87.09113595848153,1.3426161870542501E-5,0.002611490813361822
191,86.99580011248828,1.3628828778015965E-5,0.0026251196421398382
192,86.8954406258821,1.4111389203638267E-5,0.0026392310313434766
193,86.79750346537931,1.3976813819531622E-5,0.002653207845163008
194,86.69499816173088,1.4046375281100833E-5,0.0026672542204441087
195,86.59601108795599,1.4145077233296646E-5,0.0026813992976774054
196,86.4922524575658,1.4093661317350272E-5,0.002695492958994756
197,86.38699380393984,1.3941722694289814E-5,0.0027094346816890456
198,86.28803891328995,1.412298736294219E-5,0.002723557669051988
199,86.18886314288861,1.4373667129485275E-5,0.002737931336181473
200,86.08942974994417,1.417615122160111E-5,0.0027521074874030742
201,85.98228649975051,1.4063090195477098E-5,0.0027661705775985515
202,85.86868083513055,1.3778768058193884E-5,0.0027799493456567453
203,85.76276262521998,1.373174650875986E-5,0.002793681092165505
204,85.6588097487039,1.3780676762918152E-5,0.002807461768928423
205,85.55094439080537,1.4123336015822514E-5,0.0028215851049442453
206,85.43830242603315,1.439121810460104E-5,0.0028359763230488464
207,85.32661441100763,1.3897841264648868E-5,0.002849874164313495
208,85.22262536972771,1.3768147602816787E-5,0.002863642311916312
209,85.10984086042303,1.3245393551054776E-5,0.0028768877054673667
210,84.99845878124371,1.3522040710095483E-5,0.0028904097461774623
211,84.8853364835695,1.3512606023244261E-5,0.0029039223522007067
212,84.77256489745669,1.3429272561136827E-5,0.0029173516247618437
213,84.66464474927469,1.33493200682828E-5,0.0029307009448301265
214,84.55299590104303,1.3541871359232825E-5,0.0029442428161893593
215,84.44103975907197,1.3546977722441444E-5,0.0029577897939118006
216,84.32916174533497,1.344997032522869E-5,0.002971239764237029
217,84.222961893003,1.3616767008903153E-5,0.0029848565312459324
218,84.11540344990146,1.391478822580755E-5,0.0029987713194717398
219,84.00601477949198,1.3914994945313658E-5,0.0030126863144170533
220,83.89502180162509,1.4041841175025657E-5,0.003026728155592079
221,83.79079445841349,1.3867414087956893E-5,0.003040595569680036
222,83.69654873604372,1.3947104482164388E-5,0.0030545426741622004
223,83.60932777334577,1.4130443537410796E-5,0.0030686731176996114
224,83.54245754122952,1.41143573599537E-5,0.003082787475059565
225,83.46880475062198,1.4459345363660067E-5,0.003097246820423225
226,83.39056859311322,1.3932138867545707E-5,0.003111178959290771
227,83.31123868756141,1.3898621423128965E-5,0.0031250775807139
228,83.24445133717971,1.4062030684497098E-5,0.003139139611398397
229,83.17421172991875,1.3838785583092427E-5,0.0031529783969814896
230,83.10003876143492,1.3698481024716986E-5,0.0031666768780062066
231,83.02800871490719,1.3980648123520168E-5,0.003180657526129727
232,82.9541523097991,1.3881561459677353E-5,0.003194539087589404
233,82.87609678723454,1.389744721587585E-5,0.00320843653480528
234,82.79328635446329,1.3928132217963555E-5,0.0032223646670232436
235,82.71247844690159,1.369078298214035E-5,0.003236055450005384
236,82.63065614182446,1.3600928686321495E-5,0.0032496563786917052
237,82.55049875409034,1.359245391923283E-5,0.003263248832610938
238,82.47020332274089,1.3799339393627436E-5,0.0032770481720045654
239,82.39893688727936,1.3531602578923302E-5,0.0032905797745834886
240,82.32511056120646,1.362070570817091E-5,0.0033042004802916595
241,82.25185992022335,1.3784307195852786E-5,0.003317984787487512
242,82.17935209888361,1.3505734160339476E-5,0.0033314905216478515
243,82.10676970219677,1.346881993283145E-5,0.003344959341580683
244,82.02660384467423,1.3671661174852903E-5,0.0033586310027555358
245,81.94548666778701,1.3750219071610616E-5,0.0033723812218271463
246,81.86296474519573,1.3594090406601964E-5,0.0033859753122337482
247,81.78287222606752,1.3945017893553543E-5,0.0033999203301273016
248,81.69940804769004,1.3948005785751335E-5,0.003413868335913053
249,81.61760789245612,1.3241357513230042E-5,0.003427109693426283
250,81.53020255949815,1.2712281445043525E-5,0.003439821974871327
251,81.44413398650948,1.263892593323761E-5,0.0034524609008045647
252,81.3507081224926,1.2725879233209142E-5,0.003465186780037774
253,81.25871328533015,1.2923748513378278E-5,0.003478110528551152
254,81.16768976704336,1.3207273984402895E-5,0.003491317802535555
255,81.07239766098999,1.3582815874783357E-5,0.003504900618410338
256,80.98613628412588,1.3261941350574824E-5,0.003518162559760913
257,80.90580901835585,1.3173755297892464E-5,0.0035313363150588054
258,80.82201603119923,1.30624815705583E-5,0.003544398796629364
259,80.73673661782011,1.2760793111851899E-5,0.0035571595897412158
260,80.64904025423326,1.2517257070660309E-5,0.003569676846811876
261,80.57031187688168,1.2304640358730437E-5,0.0035819814871706065
262,80.48847550772258,1.2216272553607997E-5,0.0035941977597242145
263,80.4083961016908,1.1961894102467773E-5,0.0036061596538266823
264,80.32949441627784,1.2019423250592394E-5,0.0036181790770772747
265,80.25023410276346,1.2015216320494514E-5,0.0036301942933977694
266,80.1733601235558,1.215395356402562E-5,0.003642348246961795
267,80.0977260914299,1.195446714566493E-5,0.0036543027141074597
268,80.00737040721583,1.2080138174383603E-5,0.0036663828522818433
269,79.91600675754621,1.2207881854076777E-5,0.0036785907341359203
270,79.82058683278362,1.208676732704817E-5,0.0036906775014629687
271,79.72775767115728,1.210076730504322E-5,0.003702778268768012
272,79.64144225904403,1.19045268808831E-5,0.0037146827956488953
273,79.55746672239387,1.2042645064166829E-5,0.003726725440713062
274,79.48193312446747,1.2209145707374984E-5,0.003738934586420437
275,79.40055368473494,1.2064469208941203E-5,0.0037509990556293784
276,79.30940219098319,1.219585720329065E-5,0.003763194912832669
277,79.21876142779284,1.2668085850800178E-5,0.003775862998683469
278,79.12944256485768,1.2726070415221036E-5,0.00378858906909869
279,79.03666120460768,1.2803704317576215E-5,0.003801392773416266
280,78.94396456591461,1.2895692727125131E-5,0.003814288466143391
281,78.86098340969282,1.2705114970538762E-5,0.00382699358111393
282,78.78007429349788,1.2757268030878315E-5,0.003839750849144808
283,78.69866178567302,1.2678720147291224E-5,0.0038524295692920992
284,78.62202037722979,1.2776246701239069E-5,0.0038652058159933385
285,78.54583358653875,1.284876924954284E-5,0.003878054585242881
286,78.4713789511099,1.2811909191401075E-5,0.0038908664944342823
287,78.39414198399356,1.308663879410885E-5,0.0039039531332283914
288,78.31088261817061,1.3641370344975124E-5,0.003917594503573366
289,78.22408031661469,1.3427755039304618E-5,0.0039310222586126705
290,78.15052712082921,1.3843903418673986E-5,0.003944866162031344
291,78.07357365600332,1.3922100680954266E-5,0.0039587882627122985
292,78.00117785947222,1.3369493081690279E-5,0.003972157755793989
293,77.92372561933651,1.3520232395907818E-5,0.003985677988189896
294,77.84414372927965,1.3380058817505275E-5,0.003999058047007401
295,77.75941993832583,1.3214374638898476E-5,0.004012272421646299
296,77.67584070923428,1.3087797644470216E-5,0.00402536021929077
297,77.59720449081584,1.3049519276750134E-5,0.00403840973856752
298,77.5118880027082,1.3058302338881293E-5,0.0040514680409064014
299,77.41579287010389,1.3748664355701226E-5,0.004065216705262103
300,77.32275500991068,1.339619331669201E-5,0.004078612898578795
301,77.23207756929067,1.3210043452527803E-5,0.004091822942031323
302,77.1405346375833,1.3454740966207733E-5,0.004105277682997531
303,77.04734727517975,1.3416455275470525E-5,0.0041186941382730016
304,76.9540144957201,1.3253519768061445E-5,0.004131947658041063
305,76.86848067915484,1.2756526544539628E-5,0.004144704184585603
306,76.78574154028453,1.2531547691603315E-5,0.004157235732277206
307,76.7028776023791,1.2153016325917679E-5,0.004169388748603124
308,76.62264374193656,1.2153801752246608E-5,0.0041815425503553705
