#t,ESS,tempDiff,temp
0,300.00000000000114,0.0,0.0
1,299.99737927740944,6.439200503525644E-7,6.439200503525644E-7
2,299.98948110613134,6.437795215272395E-7,1.287699571879804E-6
3,299.9763401743874,6.446103361942192E-7,1.932309908074023E-6
4,299.9580161175258,6.442699836761028E-7,2.576579891750126E-6
5,299.9340960155687,6.438660562927692E-7,3.2204459480428954E-6
6,299.9052372541733,6.425733080496633E-7,3.863019256092558E-6
7,299.87063948749795,6.466793347046959E-7,4.509698590797254E-6
8,299.83049195399593,6.427437568713753E-7,5.15244234766863E-6
9,299.785053737602,6.469031960335597E-7,5.799345543702189E-6
10,299.73424465371625,6.494567807641457E-7,6.448802324466334E-6
11,299.67754828895636,6.519604681730106E-7,7.100762792639345E-6
12,299.61577493642994,6.501760525751366E-7,7.750938845214482E-6
13,299.54810870906306,6.516078337718387E-7,8.40254667898632E-6
14,299.4752387938835,6.529602439938908E-7,9.055506922980211E-6
15,299.39569381070027,6.588439512197713E-7,9.714350874199982E-6
16,299.3096115675875,6.609585679176651E-7,1.0375309442117648E-5
17,299.216790866672,6.658983668362862E-7,1.1041207808953933E-5
18,299.1175840889407,6.716712645045231E-7,1.1712879073458456E-5
19,299.0136765219959,6.69611258599809E-7,1.2382490332058265E-5
20,298.90294118570955,6.750969430666309E-7,1.3057587275124897E-5
21,298.78703885949966,6.701300005156023E-7,1.3727717275640498E-5
22,298.6663116898124,6.6423554449891E-7,1.4391952820139408E-5
23,298.540483877105,6.673319038365864E-7,1.5059284723975995E-5
24,298.4085389052143,6.704883762823322E-7,1.572977310025833E-5
25,298.2700053088744,6.721221945289943E-7,1.6401895294787323E-5
26,298.12654262458744,6.679519418025948E-7,1.7069847236589918E-5
27,297.9751190445868,6.704088367131116E-7,1.774025607330303E-5
28,297.8164874126667,6.747543426386883E-7,1.841501041594172E-5
29,297.65270338449443,6.743281600313352E-7,1.9089338575973054E-5
30,297.48359982982737,6.77317435462203E-7,1.9766656011435258E-5
31,297.3086991027689,6.786965341788986E-7,2.0445352545614157E-5
32,297.1296181450691,6.721361901831146E-7,2.111748873579727E-5
33,296.9453777818415,6.743574843232765E-7,2.1791846220120545E-5
34,296.7574771622096,6.673027536175338E-7,2.245914897373808E-5
35,296.56514606334906,6.65514653117028E-7,2.3124663626855106E-5
36,296.3678544605888,6.635806948535365E-7,2.3788244321708644E-5
37,296.1680202514424,6.537254331325273E-7,2.4441969754841172E-5
38,295.96422169214645,6.522311773577779E-7,2.509420093219895E-5
39,295.7536432645034,6.524018013367571E-7,2.5746602733535707E-5
40,295.53841517842255,6.535583113637237E-7,2.640016104489943E-5
41,295.3165699873981,6.547548485748806E-7,2.705491589347431E-5
42,295.08803560348144,6.566688469177566E-7,2.7711584740392065E-5
43,294.85587740168904,6.505041166092649E-7,2.836208885700133E-5
44,294.6194645301864,6.484445668631779E-7,2.901053342386451E-5
45,294.37934620142227,6.48836334706985E-7,2.9659369758571494E-5
46,294.13276919511145,6.497261367374621E-7,3.0309095895308957E-5
47,293.8818258176522,6.498115612133897E-7,3.0958907456522344E-5
48,293.62598836099664,6.485626236823213E-7,3.1607470080204665E-5
49,293.36304302733873,6.495496018372446E-7,3.225701968204191E-5
50,293.0952918403472,6.499918832276705E-7,3.2907011565269584E-5
51,292.82084337914233,6.542769496167285E-7,3.356128851488631E-5
52,292.5410344381135,6.509771516430037E-7,3.4212265666529313E-5
53,292.25710746728555,6.474403571213757E-7,3.485970602365069E-5
54,291.9642500248245,6.583130203962811E-7,3.5518019044046967E-5
55,291.66636968768603,6.586806570801223E-7,3.617669970112709E-5
56,291.36294434571425,6.573114013232491E-7,3.683401110245034E-5
57,291.0546295366003,6.551429597536712E-7,3.7489154062204014E-5
58,290.7390393971373,6.548640874971446E-7,3.8144018149701156E-5
59,290.41936660733126,6.491532320040175E-7,3.879317138170517E-5
60,290.0982687189824,6.473681920161695E-7,3.9440539573721344E-5
61,289.77324578814245,6.463961533315707E-7,4.008693572705291E-5
62,289.4432546494154,6.464461474407741E-7,4.073338187449369E-5
63,289.1119755374341,6.457202802749786E-7,4.1379102154768665E-5
64,288.7789850054255,6.473476145742053E-7,4.202644976934287E-5
65,288.4416079141476,6.503094348505134E-7,4.2676759204193384E-5
66,288.09828545303907,6.55369450108392E-7,4.3332128654301775E-5
67,287.7504727518331,6.575409620707743E-7,4.398966961637255E-5
68,287.3954759086854,6.584997538173982E-7,4.464816937018995E-5
69,287.0344088954388,6.636866538821905E-7,4.5311856024072136E-5
70,286.67458886159,6.588741332100744E-7,4.597073015728221E-5
71,286.30928375508034,6.636406155799393E-7,4.6634370772862155E-5
72,285.94229739497644,6.591983549738321E-7,4.729356912783599E-5
73,285.5695307893255,6.617963777876428E-7,4.795536550562363E-5
74,285.19584410572776,6.600889910328873E-7,4.861545449665652E-5
75,284.8161264698849,6.632028846824641E-7,4.9278657381338985E-5
76,284.4302408093027,6.621519244066609E-7,4.994080930574565E-5
77,284.041332754906,6.5983259238913E-7,5.060064189813478E-5
78,283.64507483906357,6.612480143949864E-7,5.1261889912529764E-5
79,283.23660857311904,6.67435075665615E-7,5.192932498819538E-5
80,282.82130032188445,6.692294122005571E-7,5.259855440039594E-5
81,282.4021078178507,6.684535567453607E-7,5.32670079571413E-5
82,281.9807506035232,6.698122918017345E-7,5.3936820248943034E-5
83,281.5597660060719,6.677772770894488E-7,5.4604597526032486E-5
84,281.13471798513916,6.647742452224355E-7,5.5269371771254924E-5
85,280.71236570168367,6.621832507995818E-7,5.5931555022054504E-5
86,280.28546824162186,6.616304960489231E-7,5.659318551810343E-5
87,279.8477651874291,6.667708268649797E-7,5.725995634496841E-5
88,279.40637035531046,6.641959388373362E-7,5.792415228380575E-5
89,278.96179166213363,6.608674828515028E-7,5.8585019766657246E-5
90,278.51428130146877,6.579151319462964E-7,5.924293489860354E-5
91,278.061154815823,6.59380462084163E-7,5.99023153606877E-5
92,277.60159809028,6.608668988900884E-7,6.056318225957779E-5
93,277.1372462135218,6.621023681785433E-7,6.122528462775633E-5
94,276.6714224582044,6.661691271478947E-7,6.189145375490422E-5
95,276.2058727502892,6.630240593230281E-7,6.255447781422726E-5
96,275.74033119037495,6.588550143956403E-7,6.321333282862289E-5
97,275.2651162607604,6.583655819196351E-7,6.387169841054252E-5
98,274.77861956759875,6.671668185653195E-7,6.453886522910784E-5
99,274.28190694212867,6.639102677135519E-7,6.52027754968214E-5
100,273.77961336168454,6.667095180554336E-7,6.586948501487683E-5
101,273.27578829880406,6.605487429859713E-7,6.65300337578628E-5
102,272.77062281457125,6.633612483284521E-7,6.719339500619125E-5
103,272.2584556356471,6.635280178256163E-7,6.785692302401687E-5
104,271.73788341499727,6.682080999376984E-7,6.852513112395457E-5
105,271.2185235235462,6.667127637456784E-7,6.919184388770025E-5
106,270.6922665919894,6.688733439100947E-7,6.986071723161034E-5
107,270.1639828036588,6.696373498195938E-7,7.053035458142994E-5
108,269.63100378785606,6.725608498466467E-7,7.120291543127659E-5
109,269.08819900641527,6.727496031247209E-7,7.187566503440131E-5
110,268.5305099459105,6.81427036913593E-7,7.25570920713149E-5
111,267.97031734917687,6.804966687258937E-7,7.32375887400408E-5
112,267.40337470288495,6.816945900866501E-7,7.391928333012745E-5
113,266.8256887475294,6.859461317761464E-7,7.460522946190359E-5
114,266.2477899058558,6.79375018990688E-7,7.528460448089427E-5
115,265.6645459487365,6.754815151678197E-7,7.596008599606209E-5
116,265.08714812650027,6.688473214946241E-7,7.662893331755672E-5
117,264.50262040567407,6.702553699588627E-7,7.729918868751558E-5
118,263.90984139437666,6.768424573156696E-7,7.797603114483125E-5
119,263.3094611887732,6.811236067441226E-7,7.865715475157537E-5
120,262.7079629542085,6.772967654510754E-7,7.933445151702644E-5
121,262.102657101332,6.787005340132214E-7,8.001315205103967E-5
122,261.49200366347395,6.819802886627586E-7,8.069513233970243E-5
123,260.8679919819623,6.859707686201031E-7,8.138110310832252E-5
124,260.2306280843552,6.920715675608293E-7,8.207317467588335E-5
125,259.5979791498498,6.90870015886004E-7,8.276404469176935E-5
126,258.9628081943327,6.896872275291897E-7,8.345373191929854E-5
127,258.3165754650522,6.961120208391321E-7,8.414984394013767E-5
128,257.66821338139783,6.959471823303933E-7,8.484579112246806E-5
129,257.0160859545181,6.970359188377414E-7,8.55428270413058E-5
130,256.3592758116622,6.90431840068004E-7,8.62332588813738E-5
131,255.69490869050003,6.936624450880511E-7,8.692692132646186E-5
132,255.02212789077356,7.010498457716305E-7,8.762797117223349E-5
133,254.3462817255348,7.006741443057445E-7,8.832864531653923E-5
134,253.66395921783854,6.999560532241409E-7,8.902860136976337E-5
135,252.9762024913805,7.011208801048788E-7,8.972972224986825E-5
136,252.28325438265406,7.064402275320616E-7,9.043616247740031E-5
137,251.5880726245982,7.023414436891056E-7,9.113850392108941E-5
138,250.8867998104527,7.004814531893264E-7,9.183898537427874E-5
139,250.18254262694938,7.048011469412131E-7,9.254378652121995E-5
140,249.47485284326774,7.052385459764858E-7,9.324902506719643E-5
141,248.76527108161795,7.031186386844589E-7,9.395214370588089E-5
142,248.06055133764585,7.020674822109422E-7,9.465421118809184E-5
143,247.35687419727992,7.022010321941097E-7,9.535641222028595E-5
144,246.64351980393062,7.041155099841156E-7,9.606052773027007E-5
145,245.92960448159744,7.027867231817291E-7,9.67633144534518E-5
146,245.2205640308429,7.025438437261873E-7,9.746585829717799E-5
147,244.5136780752705,7.008043586388783E-7,9.816666265581686E-5
148,243.80716615585607,6.969237954870989E-7,9.886358645130396E-5
149,243.09669705776793,7.024188251312964E-7,9.956600527643526E-5
150,242.36840923065836,7.129279454685151E-7,1.0027893322190377E-4
151,241.62954805267483,7.14300929511377E-7,1.0099323415141515E-4
152,240.88639807083456,7.168824407395594E-7,1.0171011659215471E-4
153,240.1453644779806,7.189086408652844E-7,1.0242902523302E-4
154,239.4027905225563,7.191561591765405E-7,1.0314818139219653E-4
155,238.65349966885654,7.141569525633686E-7,1.038623383447599E-4
156,237.8955572823681,7.15504484975296E-7,1.045778428297352E-4
157,237.13266630050342,7.164886663869937E-7,1.0529433149612219E-4
158,236.35880636464682,7.184503666739173E-7,1.060127818627961E-4
159,235.580483631657,7.177655250276529E-7,1.0673054738782376E-4
160,234.7974633973812,7.143635673450021E-7,1.0744491095516877E-4
161,234.01195986770477,7.116570214792121E-7,1.0815656797664799E-4
162,233.23566075889977,7.096635824254141E-7,1.088662315590734E-4
163,232.4577546034955,7.110537173110788E-7,1.0957728527638448E-4
164,231.680475366729,7.09727939476578E-7,1.1028701321586106E-4
165,230.8963928722954,7.128654844950705E-7,1.1099987870035613E-4
166,230.113955534846,7.130088999631448E-7,1.1171288760031927E-4
167,229.3376376549785,7.091777850404942E-7,1.1242206538535977E-4
168,228.58654365478526,7.077309109786749E-7,1.1312979629633845E-4
169,227.81363526552454,7.141851939131181E-7,1.1384398149025157E-4
170,227.05155631551196,7.109121506691742E-7,1.1455489364092074E-4
171,226.29081090426703,7.097724529619262E-7,1.1526466609388267E-4
172,225.5323052919776,7.039478957669494E-7,1.1596861398964962E-4
173,224.77455167820565,7.025033008376521E-7,1.1667111729048727E-4
174,224.02030943614065,6.996404731142797E-7,1.1737075776360155E-4
175,223.2885843760405,6.961104032636874E-7,1.1806686816686524E-4
176,222.5579394531257,6.91352801901127E-7,1.1875822096876636E-4
177,221.84332597531534,6.888810356278156E-7,1.1944710200439417E-4
178,221.12519567740287,6.852436581752866E-7,1.2013234566256946E-4
179,220.40632838573868,6.805435663671832E-7,1.2081288922893664E-4
180,219.68825602597678,6.754999576498133E-7,1.2148838918658645E-4
181,218.97595393800455,6.721459136855183E-7,1.2216053510027196E-4
182,218.25179362018199,6.75469368851885E-7,1.2283600446912386E-4
183,217.51953587781188,6.807963586092194E-7,1.2351680082773307E-4
184,216.77743167107027,6.855009786006971E-7,1.2420230180633376E-4
185,215.98166339832127,6.813773270444537E-7,1.2488367913337823E-4
186,215.1966433371449,6.778704969645303E-7,1.2556154963034276E-4
187,214.40570315915852,6.78315406465395E-7,1.2623986503680816E-4
188,213.6027221192067,6.782948638979237E-7,1.2691815990070607E-4
189,212.80196069591196,6.797140579383915E-7,1.2759787395864446E-4
190,212.00804398131595,6.803957875809636E-7,1.2827826974622542E-4
191,211.21568877811336,6.858092503230767E-7,1.289640789965485E-4
192,210.42762640398226,6.765386316052225E-7,1.296406176281537E-4
193,209.63148353906706,6.812450210177414E-7,1.3032186264917144E-4
194,208.80208386172387,6.784962120530559E-7,1.310003588612245E-4
195,207.99577114124492,6.743402735622707E-7,1.3167469913478677E-4
196,207.1788773716974,6.772390561345273E-7,1.3235193819092128E-4
197,206.3738591775625,6.701453856938149E-7,1.3302208357661509E-4
198,205.5651709358771,6.719055625441906E-7,1.3369398913915927E-4
199,204.74909502119763,6.742850942672634E-7,1.3436827423342655E-4
200,203.9363047597976,6.758731474813749E-7,1.3504414738090792E-4
201,203.1327647052096,6.669812703565841E-7,1.357111286512645E-4
202,202.32812601681638,6.639955975615424E-7,1.3637512424882604E-4
203,201.52209205401587,6.632313053448571E-7,1.370383555541709E-4
204,200.71998372259853,6.625324641276219E-7,1.3770088801829853E-4
205,199.90452978552622,6.571804077557776E-7,1.383580684260543E-4
206,199.06150050323959,6.68124539126287E-7,1.390261929651806E-4
207,198.21492894144617,6.696299657858798E-7,1.396958229309665E-4
208,197.3745155477368,6.68467881389503E-7,1.40364290812356E-4
209,196.54059292295193,6.722891654303161E-7,1.4103657997778632E-4
210,195.7078637087968,6.682456396790887E-7,1.417048256174654E-4
211,194.8602038908386,6.661284721133031E-7,1.4237095408957873E-4
212,194.01749255119984,6.662450856408794E-7,1.430371991752196E-4
213,193.14895451633203,6.63618006627913E-7,1.4370081718184752E-4
214,192.27618270213458,6.57867219490384E-7,1.443586844013379E-4
215,191.39969800806452,6.624233697280339E-7,1.4502110777106595E-4
216,190.51052072707188,6.64532944198328E-7,1.456856407152643E-4
217,189.61738492389273,6.626631658819726E-7,1.4634830388114627E-4
218,188.72659283297145,6.707414115688436E-7,1.470190452927151E-4
219,187.83793976812512,6.697823026836049E-7,1.4768882759539872E-4
220,186.95083483706014,6.642880906455352E-7,1.4835311568604426E-4
221,186.0690333539711,6.563526800009995E-7,1.4900946836604527E-4
222,185.1789307008396,6.604569441608116E-7,1.496699253102061E-4
223,184.30106029772767,6.541500109533626E-7,1.5032407532115946E-4
224,183.4198726089445,6.554587681730047E-7,1.5097953408933247E-4
225,182.53142531275356,6.585166674432023E-7,1.5163805075677568E-4
226,181.65542934508466,6.545806362241045E-7,1.5229263139299978E-4
227,180.77812227009025,6.555181595959123E-7,1.529481495525957E-4
228,179.895632013393,6.547358816006517E-7,1.5360288543419636E-4
229,179.01887173041789,6.558571562431592E-7,1.5425874259043952E-4
230,178.1328785219181,6.570486386409043E-7,1.5491579122908043E-4
231,177.24954436490776,6.594609288404639E-7,1.555752521579209E-4
232,176.38322562555345,6.554553533692176E-7,1.5623070751129013E-4
233,175.54307888846608,6.520021114040868E-7,1.5688270962269422E-4
234,174.7091896102585,6.498224226154943E-7,1.5753253204530971E-4
235,173.86488849647364,6.512375956691615E-7,1.5818376964097888E-4
236,173.0345187022614,6.446835885328042E-7,1.588284532295117E-4
237,172.20243612531817,6.465705466759224E-7,1.594750237761876E-4
238,171.36827803507225,6.497030113666632E-7,1.6012472678755425E-4
239,170.54673788340807,6.456583752773956E-7,1.6077038516283164E-4
240,169.7302120008607,6.434526782157944E-7,1.6141383784104742E-4
241,168.91590666445884,6.3688091190207E-7,1.6205071875294947E-4
242,168.10970535879272,6.295105296919529E-7,1.6268022928264144E-4
243,167.35880799481487,6.277706168082895E-7,1.6330799989944974E-4
244,166.6143848652029,6.274822169842638E-7,1.63935482116434E-4
245,165.86517867695972,6.316709098785645E-7,1.6456715302631255E-4
246,165.11426611419265,6.300054516465135E-7,1.6519715847795907E-4
247,164.37055392973338,6.295252232433028E-7,1.6582668370120236E-4
248,163.62539948256577,6.308399130022257E-7,1.664575236142046E-4
249,162.84635928044582,6.342432658136476E-7,1.6709176688001825E-4
250,162.04045165645064,6.286339412482593E-7,1.677204008212665E-4
251,161.2303512612631,6.245896157741417E-7,1.6834499043704064E-4
252,160.39702018685776,6.419719785544609E-7,1.689869624155951E-4
253,159.56388701911627,6.374397916565043E-7,1.696244022072516E-4
254,158.71494906560773,6.395505630188211E-7,1.7026395277027043E-4
255,157.86048796450532,6.422338548172315E-7,1.7090618662508766E-4
256,157.00244370629,6.430314379176432E-7,1.715492180630053E-4
257,156.14669554302333,6.430322443530778E-7,1.7219225030735838E-4
258,155.2828754721438,6.444407213370446E-7,1.7283669102869542E-4
259,154.43719611366532,6.441096807577261E-7,1.7348080070945314E-4
260,153.60363075252988,6.406450709869966E-7,1.7412144578044013E-4
261,152.75592615293112,6.386083541440058E-7,1.7476005413458415E-4
262,151.91958601339388,6.328989044989186E-7,1.7539295303908305E-4
263,151.0805724320121,6.338855144244443E-7,1.760268385535075E-4
264,150.23123705634032,6.46027118312267E-7,1.7667286567181977E-4
265,149.39672483835847,6.396733317624288E-7,1.773125390035822E-4
266,299.9963705331442,6.427874981553952E-7,1.7795532650173758E-4
267,299.98536147120564,6.438658610965511E-7,1.7859919236283412E-4
268,299.9668606833722,6.433796040277965E-7,1.7924257196686192E-4
269,299.94080709860384,6.44318981889104E-7,1.7988689094875103E-4
270,299.90784348456754,6.383294766347511E-7,1.8052522042538577E-4
271,299.86748492949306,6.390317615442028E-7,1.8116425218692996E-4
272,299.8199253736135,6.39004973986426E-7,1.818032571609164E-4
273,299.76382490486804,6.547009381161187E-7,1.824579580990325E-4
274,299.70059187923226,6.509922576988963E-7,1.831089503567314E-4
275,299.6297216785527,6.550189627327516E-7,1.8376396931946417E-4
276,299.5525591261379,6.467280547728118E-7,1.8441069737423698E-4
277,299.4685862672351,6.439407031409477E-7,1.8505463807737792E-4
278,299.37858098862154,6.37456794138906E-7,1.8569209487151684E-4
279,299.2820164647701,6.335880167537831E-7,1.863256828882706E-4
280,299.1783351405726,6.31683032332813E-7,1.869573659206034E-4
281,299.0668326393977,6.331214071447585E-7,1.8759048732774815E-4
282,298.94670228907313,6.381927703810602E-7,1.882286800981292E-4
283,298.82014750364084,6.366110038760485E-7,1.8886529110200527E-4
284,298.68677899557883,6.363637578785827E-7,1.8950165485988386E-4
285,298.54706564252996,6.356314152339604E-7,1.9013728627511781E-4
286,298.4012177520651,6.342268799262724E-7,1.907715131550441E-4
287,298.2464851149703,6.395080863356605E-7,1.9141102124137975E-4
288,298.0847832365152,6.36665927531949E-7,1.920476871689117E-4
289,297.9140694576597,6.412956285933415E-7,1.9268898279750505E-4
290,297.7352090849103,6.412675831295842E-7,1.9333025038063462E-4
291,297.55013078130366,6.428130279162902E-7,1.939730634085509E-4
292,297.3582754268156,6.438895693198697E-7,1.9461695297787076E-4
293,297.16105065499295,6.429258513430118E-7,1.9525987882921378E-4
294,296.95783324144816,6.445710760237006E-7,1.959044499052375E-4
295,296.749311883104,6.404341960554989E-7,1.9654488410129298E-4
296,296.5340273436675,6.391298572193555E-7,1.9718401395851234E-4
297,296.31119721767374,6.437998557506551E-7,1.97827813814263E-4
298,296.079485855129,6.483386630362338E-7,1.9847615247729923E-4
299,295.84286908705434,6.504120024052666E-7,1.991265644797045E-4
300,295.6018096093905,6.472139948032131E-7,1.9977377847450772E-4
301,295.35560889009975,6.470752743128787E-7,2.004208537488206E-4
302,295.10036581930507,6.517915810677428E-7,2.0107264532988832E-4
303,294.8428279491241,6.473901542286759E-7,2.01720035484117E-4
304,294.5803968370906,6.460518214518592E-7,2.0236608730556885E-4
305,294.3143064473439,6.408428957431816E-7,2.0300693020131204E-4
306,294.036143891253,6.524244771656382E-7,2.036593546784777E-4
307,293.7529561441597,6.499731678890718E-7,2.0430932784636677E-4
308,293.46378562985024,6.490350336230672E-7,2.0495836287998982E-4
309,293.1693052862948,6.448865219196267E-7,2.0560324940190945E-4
