#t,ESS,tempDiff,temp
0,200.00000000000065,0.0,0.0
1,199.99979999999994,1.199541894065364E-5,1.199541894065364E-5
2,199.99920694969663,1.1661913299134E-5,2.365733223978764E-5
3,199.99823175961492,1.2046556516976221E-5,3.570388875676386E-5
4,199.9968831412856,1.2190065839488682E-5,4.7893954596252546E-5
5,199.9951685982157,1.1980075700622073E-5,5.987403029687462E-5
6,199.99309301614443,1.1851476101969237E-5,7.172550639884386E-5
7,199.99067977976048,1.1510942909933333E-5,8.32364493087772E-5
8,199.9879180652524,1.1616440467365444E-5,9.485288977614264E-5
9,199.98482617864144,1.1815311591914001E-5,1.0666820136805664E-4
10,199.981425345351,1.1897831100523107E-5,1.1856603246857975E-4
11,199.97775879831124,1.1851900445196356E-5,1.304179329137761E-4
12,199.97376553454208,1.191381878287158E-5,1.4233175169664768E-4
13,199.96946311482958,1.1927500348422585E-5,1.5425925204507027E-4
14,199.96486628632897,1.2023665179819928E-5,1.662829172248902E-4
15,199.96000761459382,1.1927683941627974E-5,1.7821060116651817E-4
16,199.95488273347823,1.1806851136361572E-5,1.9001745230287973E-4
17,199.94945641713966,1.180170096312475E-5,2.018191532660045E-4
18,199.94369045584253,1.1751058885842449E-5,2.1357021215184693E-4
19,199.93772357740042,1.1637808184564624E-5,2.2520802033641155E-4
20,199.9314308773239,1.180068973593025E-5,2.370087100723418E-4
21,199.92478786009968,1.154556765856965E-5,2.4855427773091146E-4
22,199.91774627850495,1.1719428763324532E-5,2.60273706494236E-4
23,199.9104110357792,1.2062437020614272E-5,2.7233614351485026E-4
24,199.9028990211476,1.1914388798371414E-5,2.8425053231322166E-4
25,199.89508734968905,1.2061331322365843E-5,2.9631186363558747E-4
26,199.8871006059925,1.1919895618887351E-5,3.0823175925447484E-4
27,199.87906334977117,1.1895815324252205E-5,3.2012757457872707E-4
28,199.87072727466287,1.2006616911199813E-5,3.321341914899269E-4
29,199.86224460138598,1.203499930837615E-5,3.44169190798303E-4
30,199.8535067651969,1.1964492398093642E-5,3.5613368319639666E-4
31,199.8445276812744,1.1802915911393575E-5,3.6793659910779026E-4
32,199.83538280769957,1.181009473891279E-5,3.7974669384670305E-4
33,199.82622548256745,1.171484900353579E-5,3.9146154285023884E-4
34,199.81705542319852,1.1724638277458586E-5,4.031861811276974E-4
35,199.8074455364837,1.1831141865957713E-5,4.150173229936551E-4
36,199.79764766654134,1.1892175169553368E-5,4.2690949816320844E-4
37,199.78757409042808,1.1858788415050132E-5,4.387682865782586E-4
38,199.77727737837154,1.1991679644663632E-5,4.507599662229222E-4
39,199.76705361633907,1.1770898497221334E-5,4.6253086472014353E-4
40,199.75653374387952,1.1519579265001733E-5,4.7405044398514526E-4
41,199.74585922569332,1.1311273161778413E-5,4.853617171469237E-4
42,199.73486689744598,1.1373052149417691E-5,4.967347692963413E-4
43,199.72340434462348,1.1134534555470019E-5,5.078693038518113E-4
44,199.71175603386985,1.0873978922334706E-5,5.18743282774146E-4
45,199.70007081857412,1.1178581826868889E-5,5.299218646010148E-4
46,199.68792571829695,1.118749621324969E-5,5.411093608142645E-4
47,199.6755479620799,1.1162812528190614E-5,5.522721733424551E-4
48,199.66281783162236,1.1055042968815846E-5,5.63327216311271E-4
49,199.6498548324083,1.088829455057425E-5,5.742155108618452E-4
50,199.63641410251623,1.1093426949470563E-5,5.853089378113158E-4
51,199.6227522929259,1.1088481544141328E-5,5.963974193554571E-4
52,199.6089618401234,1.1091640135781076E-5,6.074890594912381E-4
53,199.59491397124947,1.0969706919676584E-5,6.184587664109147E-4
54,199.58064612390626,1.0621871666117777E-5,6.290806380770325E-4
55,199.5663797642435,1.0918518508746172E-5,6.399991565857787E-4
56,199.55204187858112,1.081347126700836E-5,6.50812627852787E-4
57,199.53776227005596,1.0829614622191642E-5,6.616422424749786E-4
58,199.52319136559538,1.064185018977007E-5,6.722840926647487E-4
59,199.50833926779944,1.0371665025272272E-5,6.82655757690021E-4
60,199.49334566526807,1.036554716820125E-5,6.930213048582223E-4
61,199.4782954149685,1.052045561165099E-5,7.035417604698733E-4
62,199.46307890889508,1.0395892303887173E-5,7.139376527737605E-4
63,199.4475837722094,1.068479582932427E-5,7.246224486030848E-4
64,199.43199201603673,1.0846040311905524E-5,7.354684889149903E-4
65,199.4158544308412,1.0728263401402065E-5,7.461967523163923E-4
66,199.3995151138292,1.056028162541955E-5,7.567570339418119E-4
67,199.38258870703936,1.0640921185936382E-5,7.673979551277482E-4
68,199.3656456601719,1.0855750232037612E-5,7.782537053597858E-4
69,199.34845079339473,1.0715845275439849E-5,7.889695506352256E-4
70,199.33108005280073,1.0587045932285538E-5,7.995565965675112E-4
71,199.31342800896442,1.0395594598015364E-5,8.099521911655265E-4
72,199.29540250918117,1.0441423895492442E-5,8.203936150610189E-4
73,199.27706371536738,1.0268125609166284E-5,8.306617406701852E-4
74,199.25888337907273,1.0287264325484816E-5,8.4094900499567E-4
75,199.2404294327055,1.0457509278062572E-5,8.514065142737326E-4
76,199.2219427561769,1.027603725013699E-5,8.616825515238697E-4
77,199.2039012240046,1.0425723528117013E-5,8.721082750519866E-4
78,199.18583840740254,1.0218097887633183E-5,8.823263729396198E-4
79,199.16787054835535,1.012302049719473E-5,8.924493934368146E-4
80,199.15001892859945,1.0128499686107979E-5,9.025778931229226E-4
81,199.13235547920974,1.0068404439983745E-5,9.126462975629064E-4
82,199.11470222442586,9.893840752372751E-6,9.225401383152792E-4
83,199.09668645589588,9.876409943923195E-6,9.324165482592024E-4
84,199.07855970222786,9.81952540688625E-6,9.422360736660887E-4
85,199.06019094966823,9.88975211641874E-6,9.521258257825074E-4
86,199.0414520987831,1.0001875196864724E-5,9.621277009793721E-4
87,199.02244117174453,9.921140548421356E-6,9.720488415277935E-4
88,199.00300915380132,1.002376915036154E-5,9.82072610678155E-4
89,198.9833957314846,1.017108465154019E-5,9.922436953296952E-4
90,198.9635727052995,1.003640858238389E-5,0.001002280103912079
91,198.9433718472325,1.0322679430059503E-5,0.0010126027833421384
92,198.92314025354975,1.0501971844983015E-5,0.0010231047551871213
93,198.902904076913,1.0405262817659894E-5,0.0010335100180047813
94,198.88293407554102,1.0304311265132555E-5,0.001043814329269914
95,198.86270089749368,1.0239955894488157E-5,0.001054054285164402
96,198.84213339533167,1.0352255202473896E-5,0.001064406540366876
97,198.82189410110874,1.0137270058177032E-5,0.001074543810425053
98,198.80137794208153,1.010231476921188E-5,0.001084646125194265
99,198.780719230349,1.0322461194374178E-5,0.0010949685863886392
100,198.75995106965294,1.0144574523564441E-5,0.0011051131609122037
101,198.7390096780018,1.0183545314150313E-5,0.001115296706226354
102,198.71826898494285,1.0108942522640974E-5,0.001125405648748995
103,198.69750472954624,1.0354392916040576E-5,0.0011357600416650356
104,198.67695590122156,1.0488032064886243E-5,0.0011462480737299218
105,198.65640300298554,1.03849782325486E-5,0.0011566330519624704
106,198.63559941706777,1.0423625210292824E-5,0.0011670566771727633
107,198.6143550126632,1.045204711685164E-5,0.001177508724289615
108,198.5925925262876,1.0325993441413279E-5,0.0011878347177310283
109,198.57060263093516,1.0371933027263363E-5,0.0011982066507582917
110,198.54890049735772,1.0690373231144923E-5,0.0012088970239894365
111,198.52686568099725,1.0509367302554803E-5,0.0012194063912919913
112,198.50468770670523,1.0503200476113679E-5,0.001229909591768105
113,198.48236796861744,1.0616688987179085E-5,0.001240526280755284
114,198.45998880678238,1.0736175143296772E-5,0.0012512624558985808
115,198.43756798657114,1.0833230624470362E-5,0.001262095686523051
116,198.41558101845177,1.0614711752886631E-5,0.0012727103982759377
117,198.39322375661217,1.1122783936338953E-5,0.0012838331822122766
118,198.37054480140577,1.095043628417318E-5,0.0012947836184964497
119,198.34804572566148,1.0887681407523086E-5,0.0013056712999039728
120,198.32559996371182,1.0928011462783894E-5,0.0013165993113667567
121,198.30366056264927,1.0800775463664509E-5,0.0013274000868304212
122,198.28159352785508,1.0793189044268073E-5,0.0013381932758746893
123,198.25931331232718,1.0889033678359101E-5,0.0013490823095530485
124,198.23627638537798,1.0928237557433151E-5,0.0013600105471104817
125,198.21286195130972,1.1049958378596459E-5,0.0013710605054890782
126,198.1898658513924,1.1095808332093443E-5,0.0013821563138211716
127,198.16679222117241,1.1173543413117172E-5,0.0013933298572342888
128,198.1438484263203,1.1539241548442463E-5,0.0014048690987827313
129,198.12068919576654,1.1490795841640571E-5,0.0014163598946243718
130,198.09688595653887,1.1195441863600705E-5,0.0014275553364879725
131,198.0733764507983,1.1104292460724177E-5,0.0014386596289486966
132,198.049817292332,1.0970369436921583E-5,0.0014496299983856181
133,198.02600539375646,1.1049257163249876E-5,0.001460679255548868
134,198.00216920810965,1.116997876089125E-5,0.0014718492343097592
135,197.9778778216278,1.1370840850961504E-5,0.0014832200751607207
136,197.954043881589,1.1075081819442384E-5,0.0014942951569801631
137,197.9301696438995,1.0957774960612828E-5,0.001505252931940776
138,197.90668811724717,1.069878991693909E-5,0.001515951721857715
139,197.8829983481224,1.0808841024439034E-5,0.0015267605628821541
140,197.8590347591898,1.0713749658753116E-5,0.0015374743125409073
141,197.8348617018277,1.0587507740991045E-5,0.0015480618202818983
142,197.81046541876924,1.057800631404182E-5,0.00155863982659594
143,197.78670808926768,1.0626473239823611E-5,0.0015692662998357636
144,197.76395785998878,1.0715137262850219E-5,0.0015799814370986139
145,197.74072575726214,1.0493203817497601E-5,0.0015904746409161116
146,197.71747313293733,1.0551473314013865E-5,0.0016010261142301253
147,197.69351366463647,1.0455300969493208E-5,0.0016114814151996185
148,197.6699159102611,1.0380996446253162E-5,0.0016218624116458716
149,197.64509458388352,1.0487329046587342E-5,0.001632349740692459
150,197.62026322795575,1.0344461885687063E-5,0.001642694202578146
151,197.59552216874442,1.0438055903724567E-5,0.0016531322584818705
152,197.57117026952278,1.066777195841177E-5,0.0016638000304402822
153,197.5466518189603,1.069732865513617E-5,0.0016744973590954184
154,197.52140981016618,1.0572100645139747E-5,0.001685069459740558
155,197.49653063870215,1.0668528730315407E-5,0.0016957379884708734
156,197.47154943683896,1.0840409080442018E-5,0.0017065783975513155
157,197.44689217078349,1.0802141514144986E-5,0.0017173805390654604
158,197.4212211724186,1.0735808479896213E-5,0.0017281163475453567
159,197.39615627612824,1.0806176785047121E-5,0.0017389225243304037
160,197.37039656690567,1.098089033695585E-5,0.0017499034146673596
161,197.34448106006622,1.1155439934088493E-5,0.001761058854601448
162,197.31791852937764,1.1408263823854281E-5,0.0017724671184253023
163,197.29121678255268,1.135938910757634E-5,0.0017838265075328786
164,197.26503157195523,1.1227172063939378E-5,0.001795053679596818
165,197.2385371940417,1.1213782302162561E-5,0.0018062674618989807
166,197.21229987105926,1.088545786567023E-5,0.001817152919764651
167,197.18639729445138,1.1115947196640156E-5,0.0018282688669612912
168,197.16098488948327,1.090828722980818E-5,0.0018391771541910993
169,197.13514732329006,1.0840751035489597E-5,0.001850017905226589
170,197.1092778987871,1.0688362354785756E-5,0.0018607062675813748
171,197.08405052336937,1.0816291351254487E-5,0.0018715225589326292
172,197.05909918056705,1.083052712991165E-5,0.0018823530860625408
173,197.0342796861646,1.1016179471919167E-5,0.0018933692655344599
174,197.00892424879578,1.1181376310135718E-5,0.0019045506418445956
175,196.98260539874929,1.0827450723040155E-5,0.0019153780925676358
176,196.95626144353895,1.1106607024990505E-5,0.0019264846995926262
177,196.93017660174618,1.1049649730224872E-5,0.0019375343493228511
178,196.90492658295315,1.0723738409414396E-5,0.0019482580877322655
179,196.87943253310186,1.0675114770165035E-5,0.0019589332025024306
180,196.85465491689243,1.0622129622254522E-5,0.001969555332124685
181,196.82978823422602,1.0430472420420974E-5,0.001979985804545106
182,196.80413069280692,1.0297291932492516E-5,0.0019902830964775983
183,196.77819619005535,1.0482464142158884E-5,0.002000765560619757
184,196.751464081098,1.044995798442293E-5,0.00201121551860418
185,196.72428007200585,1.0566025511087551E-5,0.0020217815441152674
186,196.69726585832655,1.0515702171212095E-5,0.0020322972462864797
187,196.67040497443486,1.0512460478630365E-5,0.00204280970676511
188,196.64265185057525,1.0558343322211565E-5,0.0020533680500873217
189,196.61471542105858,1.0625850014230073E-5,0.002063993900101552
190,196.5857975556114,1.0614164314718989E-5,0.002074608064416271
191,196.5568413914463,1.0445705329538632E-5,0.0020850537697458095
192,196.52739937877942,1.0339159677745742E-5,0.0020953929294235552
193,196.49765963237144,1.0320286475151246E-5,0.0021057132158987064
194,196.46755037187438,1.0501964870202107E-5,0.0021162151807689084
195,196.43750474517373,1.0397926382890245E-5,0.0021266131071517986
196,196.40640831986408,1.0315658239187044E-5,0.0021369287653909856
197,196.37565295043476,1.021519314413651E-5,0.002147143958535122
198,196.34561358052534,9.998692245301417E-6,0.0021571426507804234
199,196.31520720809746,9.961516294252597E-6,0.002167104167074676
200,196.28491605144157,9.918893416858971E-6,0.002177023060491535
201,196.2548195329562,1.0000566040793465E-5,0.0021870236265323284
202,196.22467187554687,9.946465210951097E-6,0.0021969700917432796
203,196.19535136720253,9.9150019689161E-6,0.0022068850937121956
204,196.16587987554587,9.784835230601576E-6,0.0022166699289427974
205,196.1366389351804,9.863462457670908E-6,0.002226533391400468
206,196.10687700593436,9.948534928680263E-6,0.0022364819263291486
207,196.07664845408746,9.889470679524066E-6,0.0022463713970086725
208,196.04600716723166,9.828339185605682E-6,0.0022561997361942782
209,196.01527909310911,9.986664230222786E-6,0.002266186400424501
210,195.98466336585145,9.97826850713345E-6,0.0022761646689316347
211,195.95421597487456,9.993363631973132E-6,0.002286158032563608
212,195.9236820484812,1.0062736203835261E-5,0.0022962207687674432
213,195.8939826377156,1.0041458516584223E-5,0.0023062622272840274
214,195.8639234097443,9.81663829912597E-6,0.0023160788655831534
215,195.834460818095,9.63047275283573E-6,0.002325709338335989
216,195.805066196111,9.734442215098938E-6,0.002335443780551088
217,195.77556691491654,9.798779881727757E-6,0.002345242560432816
218,195.7461148143272,9.974047525380964E-6,0.002355216607958197
219,195.71621817977797,1.0025887175046846E-5,0.002365242495133244
220,195.68694490316466,1.0134106213970544E-5,0.0023753766013472144
221,195.65717916336547,1.0185228075387129E-5,0.0023855618294226014
222,195.6277351143367,9.902562232320472E-6,0.002395464391654922
223,195.59826590642825,9.7431700411065E-6,0.0024052075616960286
224,195.56763810584889,9.733610384089013E-6,0.0024149411720801174
225,195.53740487923668,9.760068179088378E-6,0.002424701240259206
226,195.50673052428093,9.63161597190943E-6,0.002434332856231115
227,195.47692780195692,9.614413779768412E-6,0.0024439472700108836
228,195.4471132462578,9.808029940619967E-6,0.0024537552999515035
229,195.41661118646903,9.850744166039035E-6,0.0024636060441175426
230,195.38484597199596,1.0106468100861534E-5,0.0024737125122184043
231,195.3539059244526,1.025981779592206E-5,0.0024839723300143263
232,195.32340865229347,1.030297699502509E-5,0.0024942753070093513
233,195.29272976747902,1.0175299271979111E-5,0.0025044506062813303
234,195.26189858499538,1.0098091412531855E-5,0.002514548697693862
235,195.23098165781576,9.859844792079608E-6,0.0025244085424859417
236,195.2002014757395,9.896501206150396E-6,0.002534305043692092
237,195.16925623244458,9.795703536946933E-6,0.002544100747229039
238,195.13859650408605,9.925878539175935E-6,0.002554026625768215
239,195.10855251967183,9.78999461507278E-6,0.0025638166203832877
240,195.0783818190473,9.995621081039732E-6,0.0025738122414643272
241,195.048280706259,9.58063419339355E-6,0.0025833928756577207
242,195.01724580360423,9.803581838192173E-6,0.002593196457495913
243,194.98620551270903,9.988015179578584E-6,0.0026031844726754918
244,194.95500295395868,9.966704582124979E-6,0.0026131511772576168
245,194.92308601760155,9.864768806180226E-6,0.002623015946063797
246,194.8913892516515,9.955149627056525E-6,0.0026329710956908537
247,194.8588949791514,9.956763495075448E-6,0.002642927859185929
248,194.82652026915875,9.899062625355886E-6,0.002652826921811285
249,194.7940387192377,9.81455810378095E-6,0.002662641479915066
250,194.76137592886315,9.65140324619796E-6,0.002672292883161264
251,194.7287633561965,9.665890617061648E-6,0.0026819587737783256
252,194.6957190917198,9.680820555655531E-6,0.0026916395943339813
253,194.6619739842128,9.64897913537806E-6,0.0027012885734693593
254,194.62758315883417,9.81231116265229E-6,0.0027111008846320114
255,194.59236184015728,9.762006666706835E-6,0.002720862891298718
256,194.55677336529732,9.511976011026953E-6,0.002730374867309745
257,194.52173478470135,9.436703887473675E-6,0.002739811571197219
258,194.48646231914904,9.49908940088178E-6,0.0027493106605981006
259,194.45150551381198,9.645343776726729E-6,0.0027589560043748272
260,194.41583426984317,9.657207103555021E-6,0.002768613211478382
261,194.3791928213812,9.857443643188618E-6,0.0027784706551215706
262,194.34158046156438,9.790447211904952E-6,0.0027882611023334757
263,194.30311527391586,9.88635111195343E-6,0.002798147453445429
264,194.26513810424285,9.808611302498115E-6,0.0028079560647479274
265,194.2267029231525,9.63007837093472E-6,0.002817586143118862
266,194.1874809322068,9.750539532922249E-6,0.0028273366826517847
267,194.14741425590546,9.835084206377917E-6,0.002837171766858163
268,194.1070728071137,9.909511244212932E-6,0.0028470812781023758
269,194.06642190412325,9.801352583189643E-6,0.0028568826306855652
270,194.0267115388946,1.0111918700410687E-5,0.002866994549385976
271,193.9870977576194,1.0155346030333837E-5,0.0028771498954163095
272,193.94655603982417,1.0096634648237205E-5,0.002887246530064547
273,193.90590936279105,9.93022590254757E-6,0.0028971767559670945
274,193.86487753386686,9.642444794939267E-6,0.002906819200762034
275,193.82512943950692,9.634701366923315E-6,0.0029164539021289573
276,193.78590872042938,9.611305329785889E-6,0.002926065207458743
277,193.74627730158574,9.771623072632937E-6,0.002935836830531376
278,193.70627746447406,9.953086000538242E-6,0.0029457899165319145
279,193.66602165541173,9.976919888428275E-6,0.0029557668364203426
280,193.62538540948296,1.0035916100041508E-5,0.002965802752520384
281,193.58456309881043,9.866132062331445E-6,0.0029756688845827156
282,193.54389415669516,9.879023307111168E-6,0.0029855479078898265
283,193.50462408005518,9.737347698805976E-6,0.0029952852555886326
284,193.4645879352511,9.864956951505472E-6,0.003005150212540138
285,193.42575873571738,9.737544591471269E-6,0.0030148877571316095
286,193.3876165781866,9.723325351431607E-6,0.003024611082483041
287,193.34873092546877,9.759433973623067E-6,0.003034370516456664
288,193.3105377263645,9.89190923176046E-6,0.0030442624256884245
289,193.27322918933194,9.952839502966718E-6,0.0030542152651913913
290,193.23527506200102,9.896843529038404E-6,0.0030641121087204297
291,193.19845555767245,9.765460174738003E-6,0.0030738775688951676
292,193.16298717486444,9.88378448313379E-6,0.0030837613533783014
293,193.12695298346395,9.919118199351625E-6,0.003093680471577653
294,193.09047948148657,9.966110393620503E-6,0.0031036465819712735
295,193.05390101905058,1.0002805594977022E-5,0.0031136493875662504
296,193.01747828055946,1.005714716113608E-5,0.0031237065347273865
297,192.98201419811943,9.845061974322697E-6,0.0031335515967017094
298,192.9472918811693,9.91649424280641E-6,0.0031434680909445158
299,192.91344182465602,9.907234701453095E-6,0.003153375325645969
300,192.87925419440626,9.825824835300833E-6,0.00316320115048127
301,192.84553181067685,9.840824393556682E-6,0.0031730419748748264
302,192.8123093788021,9.992851190241176E-6,0.0031830348260650674
303,192.77818284666873,9.911846427779507E-6,0.003192946672492847
304,192.7437797182356,9.827293217768302E-6,0.003202773965710615
305,192.70993448692695,9.808109413845117E-6,0.0032125820751244603
