#t,ESS,tempDiff,temp
0,200.00000000000065,0.0,0.0
1,199.99978411022116,1.199541894065364E-5,1.199541894065364E-5
2,199.99917317906025,1.1661913299134E-5,2.365733223978764E-5
3,199.99809173231588,1.2046556516976221E-5,3.570388875676386E-5
4,199.99658058823556,1.2190065839488682E-5,4.7893954596252546E-5
5,199.99464489396715,1.1980075700622073E-5,5.987403029687462E-5
6,199.99231317479632,1.1851476101969237E-5,7.172550639884386E-5
7,199.9896783983145,1.1510942909933333E-5,8.32364493087772E-5
8,199.98662734101148,1.1616440467365444E-5,9.485288977614264E-5
9,199.9831680077657,1.1815311591914001E-5,1.0666820136805664E-4
10,199.9792856877247,1.1897831100523107E-5,1.1856603246857975E-4
11,199.97502430508436,1.1851900445196356E-5,1.304179329137761E-4
12,199.97023042059425,1.191381878287158E-5,1.4233175169664768E-4
13,199.96506676277886,1.1927500348422585E-5,1.5425925204507027E-4
14,199.9596487527408,1.2023665179819928E-5,1.662829172248902E-4
15,199.95388812486235,1.1927683941627974E-5,1.7821060116651817E-4
16,199.94767648520983,1.1806851136361572E-5,1.9001745230287973E-4
17,199.94109553655736,1.180170096312475E-5,2.018191532660045E-4
18,199.93431501926585,1.1751058885842449E-5,2.1357021215184693E-4
19,199.92717022485655,1.1637808184564624E-5,2.2520802033641155E-4
20,199.91937945811003,1.180068973593025E-5,2.370087100723418E-4
21,199.91141783017517,1.154556765856965E-5,2.4855427773091146E-4
22,199.90273889467304,1.1719428763324532E-5,2.60273706494236E-4
23,199.89339343525174,1.2062437020614272E-5,2.7233614351485026E-4
24,199.88384943443364,1.1914388798371414E-5,2.8425053231322166E-4
25,199.87366064968992,1.2061331322365843E-5,2.9631186363558747E-4
26,199.86307185089197,1.1919895618887351E-5,3.0823175925447484E-4
27,199.8521009867213,1.1895815324252205E-5,3.2012757457872707E-4
28,199.84034229925635,1.2006616911199813E-5,3.321341914899269E-4
29,199.82815134561852,1.203499930837615E-5,3.44169190798303E-4
30,199.81574550039124,1.1964492398093642E-5,3.5613368319639666E-4
31,199.8033341469336,1.1802915911393575E-5,3.6793659910779026E-4
32,199.79058576063377,1.181009473891279E-5,3.7974669384670305E-4
33,199.7773810478442,1.171484900353579E-5,3.9146154285023884E-4
34,199.764040945527,1.1724638277458586E-5,4.031861811276974E-4
35,199.75026002042085,1.1831141865957713E-5,4.150173229936551E-4
36,199.7361820495993,1.1892175169553368E-5,4.2690949816320844E-4
37,199.7221028804734,1.1858788415050132E-5,4.387682865782586E-4
38,199.70716581830672,1.1991679644663632E-5,4.507599662229222E-4
39,199.69226298556518,1.1770898497221334E-5,4.6253086472014353E-4
40,199.67728226182203,1.1519579265001733E-5,4.7405044398514526E-4
41,199.66188545734073,1.1311273161778413E-5,4.853617171469237E-4
42,199.64640509640563,1.1373052149417691E-5,4.967347692963413E-4
43,199.63084280832277,1.1134534555470019E-5,5.078693038518113E-4
44,199.6153753952041,1.0873978922334706E-5,5.18743282774146E-4
45,199.5995053614703,1.1178581826868889E-5,5.299218646010148E-4
46,199.58357950463346,1.118749621324969E-5,5.411093608142645E-4
47,199.56742815223228,1.1162812528190614E-5,5.522721733424551E-4
48,199.55088492472575,1.1055042968815846E-5,5.63327216311271E-4
49,199.5346086188433,1.088829455057425E-5,5.742155108618452E-4
50,199.5177058061818,1.1093426949470563E-5,5.853089378113158E-4
51,199.50096592581292,1.1088481544141328E-5,5.963974193554571E-4
52,199.48439881634872,1.1091640135781076E-5,6.074890594912381E-4
53,199.4684763966242,1.0969706919676584E-5,6.184587664109147E-4
54,199.4526810307502,1.0621871666117777E-5,6.290806380770325E-4
55,199.4361832185653,1.0918518508746172E-5,6.399991565857787E-4
56,199.41970137629286,1.081347126700836E-5,6.50812627852787E-4
57,199.40353348125979,1.0829614622191642E-5,6.616422424749786E-4
58,199.38723680345092,1.064185018977007E-5,6.722840926647487E-4
59,199.3705755459653,1.0371665025272272E-5,6.82655757690021E-4
60,199.35359944996947,1.036554716820125E-5,6.930213048582223E-4
61,199.3359284702002,1.052045561165099E-5,7.035417604698733E-4
62,199.31800077510633,1.0395892303887173E-5,7.139376527737605E-4
63,199.3003532067773,1.068479582932427E-5,7.246224486030848E-4
64,199.28227849699522,1.0846040311905524E-5,7.354684889149903E-4
65,199.2638725807022,1.0728263401402065E-5,7.461967523163923E-4
66,199.2455107792509,1.056028162541955E-5,7.567570339418119E-4
67,199.22624375396904,1.0640921185936382E-5,7.673979551277482E-4
68,199.2059816915489,1.0855750232037612E-5,7.782537053597858E-4
69,199.18549261457485,1.0715845275439849E-5,7.889695506352256E-4
70,199.1644838300139,1.0587045932285538E-5,7.995565965675112E-4
71,199.1441752396261,1.0395594598015364E-5,8.099521911655265E-4
72,199.12370945435734,1.0441423895492442E-5,8.203936150610189E-4
73,199.10394376788375,1.0268125609166284E-5,8.306617406701852E-4
74,199.08288076843442,1.0287264325484816E-5,8.4094900499567E-4
75,199.06097741233754,1.0457509278062572E-5,8.514065142737326E-4
76,199.03937757347526,1.027603725013699E-5,8.616825515238697E-4
77,199.01834183239197,1.0425723528117013E-5,8.721082750519866E-4
78,198.9969445098714,1.0218097887633183E-5,8.823263729396198E-4
79,198.97568356410704,1.012302049719473E-5,8.924493934368146E-4
80,198.955123347186,1.0128499686107979E-5,9.025778931229226E-4
81,198.93377656074023,1.0068404439983745E-5,9.126462975629064E-4
82,198.9126793898528,9.893840752372751E-6,9.225401383152792E-4
83,198.89252844620518,9.876409943923195E-6,9.324165482592024E-4
84,198.87255950567172,9.81952540688625E-6,9.422360736660887E-4
85,198.8527264356421,9.88975211641874E-6,9.521258257825074E-4
86,198.83355820265342,1.0001875196864724E-5,9.621277009793721E-4
87,198.81442799783457,9.921140548421356E-6,9.720488415277935E-4
88,198.7947445149516,1.002376915036154E-5,9.82072610678155E-4
89,198.77502925410744,1.017108465154019E-5,9.922436953296952E-4
90,198.75575982506945,1.003640858238389E-5,0.001002280103912079
91,198.736344310074,1.0322679430059503E-5,0.0010126027833421384
92,198.7163184533763,1.0501971844983015E-5,0.0010231047551871213
93,198.6959594562922,1.0405262817659894E-5,0.0010335100180047813
94,198.67589179370165,1.0304311265132555E-5,0.001043814329269914
95,198.65629120342342,1.0239955894488157E-5,0.001054054285164402
96,198.63657311286482,1.0352255202473896E-5,0.001064406540366876
97,198.61776422206728,1.0137270058177032E-5,0.001074543810425053
98,198.598375106717,1.010231476921188E-5,0.001084646125194265
99,198.5780484538271,1.0322461194374178E-5,0.0010949685863886392
100,198.55786129654183,1.0144574523564441E-5,0.0011051131609122037
101,198.53713659769076,1.0183545314150313E-5,0.001115296706226354
102,198.51640744235755,1.0108942522640974E-5,0.001125405648748995
103,198.4948614409311,1.0354392916040576E-5,0.0011357600416650356
104,198.47276242077248,1.0488032064886243E-5,0.0011462480737299218
105,198.45010147030382,1.03849782325486E-5,0.0011566330519624704
106,198.427538662787,1.0423625210292824E-5,0.0011670566771727633
107,198.40497268295303,1.045204711685164E-5,0.001177508724289615
108,198.38266221447938,1.0325993441413279E-5,0.0011878347177310283
109,198.3599865767181,1.0371933027263363E-5,0.0011982066507582917
110,198.33626916724165,1.0690373231144923E-5,0.0012088970239894365
111,198.31200229135518,1.0509367302554803E-5,0.0012194063912919913
112,198.28734420382972,1.0503200476113679E-5,0.001229909591768105
113,198.2620333143937,1.0616688987179085E-5,0.001240526280755284
114,198.23689282451232,1.0736175143296772E-5,0.0012512624558985808
115,198.2109941203513,1.0833230624470362E-5,0.001262095686523051
116,198.18647590526865,1.0614711752886631E-5,0.0012727103982759377
117,198.1614886258929,1.1122783936338953E-5,0.0012838331822122766
118,198.13686530919043,1.095043628417318E-5,0.0012947836184964497
119,198.1118115928889,1.0887681407523086E-5,0.0013056712999039728
120,198.08728996343882,1.0928011462783894E-5,0.0013165993113667567
121,198.06293585100025,1.0800775463664509E-5,0.0013274000868304212
122,198.0384098952623,1.0793189044268073E-5,0.0013381932758746893
123,198.01389765697905,1.0889033678359101E-5,0.0013490823095530485
124,197.98885927887127,1.0928237557433151E-5,0.0013600105471104817
125,197.96297579361345,1.1049958378596459E-5,0.0013710605054890782
126,197.93627000415938,1.1095808332093443E-5,0.0013821563138211716
127,197.90790559596257,1.1173543413117172E-5,0.0013933298572342888
128,197.87850205685143,1.1539241548442463E-5,0.0014048690987827313
129,197.84871003387101,1.1490795841640571E-5,0.0014163598946243718
130,197.81932668367173,1.1195441863600705E-5,0.0014275553364879725
131,197.7898456700817,1.1104292460724177E-5,0.0014386596289486966
132,197.7598418103915,1.0970369436921583E-5,0.0014496299983856181
133,197.7289217148183,1.1049257163249876E-5,0.001460679255548868
134,197.6983464673885,1.116997876089125E-5,0.0014718492343097592
135,197.6667848745955,1.1370840850961504E-5,0.0014832200751607207
136,197.63660497500894,1.1075081819442384E-5,0.0014942951569801631
137,197.60747072355247,1.0957774960612828E-5,0.001505252931940776
138,197.5793181385236,1.069878991693909E-5,0.001515951721857715
139,197.55054112836552,1.0808841024439034E-5,0.0015267605628821541
140,197.52214189426235,1.0713749658753116E-5,0.0015374743125409073
141,197.49461156413662,1.0587507740991045E-5,0.0015480618202818983
142,197.4662244842147,1.057800631404182E-5,0.00155863982659594
143,197.43713358681563,1.0626473239823611E-5,0.0015692662998357636
144,197.40679415866614,1.0715137262850219E-5,0.0015799814370986139
145,197.37652999405887,1.0493203817497601E-5,0.0015904746409161116
146,197.34392736885385,1.0551473314013865E-5,0.0016010261142301253
147,197.31399166112215,1.0455300969493208E-5,0.0016114814151996185
148,197.2839495094108,1.0380996446253162E-5,0.0016218624116458716
149,197.2526663679792,1.0487329046587342E-5,0.001632349740692459
150,197.22256430823305,1.0344461885687063E-5,0.001642694202578146
151,197.19115356514592,1.0438055903724567E-5,0.0016531322584818705
152,197.1596097960718,1.066777195841177E-5,0.0016638000304402822
153,197.1279698897809,1.069732865513617E-5,0.0016744973590954184
154,197.09530379027245,1.0572100645139747E-5,0.001685069459740558
155,197.06179368445675,1.0668528730315407E-5,0.0016957379884708734
156,197.0271016048884,1.0840409080442018E-5,0.0017065783975513155
157,196.99254613753598,1.0802141514144986E-5,0.0017173805390654604
158,196.95924291567314,1.0735808479896213E-5,0.0017281163475453567
159,196.92583702015182,1.0806176785047121E-5,0.0017389225243304037
160,196.89133372385893,1.098089033695585E-5,0.0017499034146673596
161,196.85708282534281,1.1155439934088493E-5,0.001761058854601448
162,196.82030366674928,1.1408263823854281E-5,0.0017724671184253023
163,196.78397554011886,1.135938910757634E-5,0.0017838265075328786
164,196.75207749356153,1.1227172063939378E-5,0.001795053679596818
165,196.7198813811624,1.1213782302162561E-5,0.0018062674618989807
166,196.68963211280675,1.088545786567023E-5,0.001817152919764651
167,196.6583470174597,1.1115947196640156E-5,0.0018282688669612912
168,196.62785188784093,1.090828722980818E-5,0.0018391771541910993
169,196.59831381774063,1.0840751035489597E-5,0.001850017905226589
170,196.5694042883654,1.0688362354785756E-5,0.0018607062675813748
171,196.5401525889519,1.0816291351254487E-5,0.0018715225589326292
172,196.50966092637083,1.083052712991165E-5,0.0018823530860625408
173,196.47833011519054,1.1016179471919167E-5,0.0018933692655344599
174,196.44693906839183,1.1181376310135718E-5,0.0019045506418445956
175,196.41739894574658,1.0827450723040155E-5,0.0019153780925676358
176,196.3865115462282,1.1106607024990505E-5,0.0019264846995926262
177,196.3542254254588,1.1049649730224872E-5,0.0019375343493228511
178,196.3229018011033,1.0723738409414396E-5,0.0019482580877322655
179,196.28791052441446,1.0675114770165035E-5,0.0019589332025024306
180,196.25304079822664,1.0622129622254522E-5,0.001969555332124685
181,196.21885879715472,1.0430472420420974E-5,0.001979985804545106
182,196.18620363522632,1.0297291932492516E-5,0.0019902830964775983
183,196.1526360978202,1.0482464142158884E-5,0.002000765560619757
184,196.11935327551967,1.044995798442293E-5,0.00201121551860418
185,196.0870636637327,1.0566025511087551E-5,0.0020217815441152674
186,196.05241935973112,1.0515702171212095E-5,0.0020322972462864797
187,196.01813844308722,1.0512460478630365E-5,0.00204280970676511
188,195.98347120045884,1.0558343322211565E-5,0.0020533680500873217
189,195.94903485515385,1.0625850014230073E-5,0.002063993900101552
190,195.91412370283004,1.0614164314718989E-5,0.002074608064416271
191,195.8794005401958,1.0445705329538632E-5,0.0020850537697458095
192,195.84475189929984,1.0339159677745742E-5,0.0020953929294235552
193,195.81008272588585,1.0320286475151246E-5,0.0021057132158987064
194,195.77374377946128,1.0501964870202107E-5,0.0021162151807689084
195,195.73861985776063,1.0397926382890245E-5,0.0021266131071517986
196,195.7021866438402,1.0315658239187044E-5,0.0021369287653909856
197,195.665272004704,1.021519314413651E-5,0.002147143958535122
198,195.62991817448204,9.998692245301417E-6,0.0021571426507804234
199,195.594217488615,9.961516294252597E-6,0.002167104167074676
200,195.55866535835509,9.918893416858971E-6,0.002177023060491535
201,195.5232433465057,1.0000566040793465E-5,0.0021870236265323284
202,195.48815141678236,9.946465210951097E-6,0.0021969700917432796
203,195.45155781077935,9.9150019689161E-6,0.0022068850937121956
204,195.41675014409873,9.784835230601576E-6,0.0022166699289427974
205,195.38280223974644,9.863462457670908E-6,0.002226533391400468
206,195.34861275751277,9.948534928680263E-6,0.0022364819263291486
207,195.3156262917782,9.889470679524066E-6,0.0022463713970086725
208,195.2825056316503,9.828339185605682E-6,0.0022561997361942782
209,195.24828795426643,9.986664230222786E-6,0.002266186400424501
210,195.21363397111307,9.97826850713345E-6,0.0022761646689316347
211,195.17873883138668,9.993363631973132E-6,0.002286158032563608
212,195.14387595854345,1.0062736203835261E-5,0.0022962207687674432
213,195.1104040608145,1.0041458516584223E-5,0.0023062622272840274
214,195.07707591253325,9.81663829912597E-6,0.0023160788655831534
215,195.04412586029082,9.63047275283573E-6,0.002325709338335989
216,195.01058413645313,9.734442215098938E-6,0.002335443780551088
217,194.9759099031269,9.798779881727757E-6,0.002345242560432816
218,194.94297426943655,9.974047525380964E-6,0.002355216607958197
219,194.91002899899095,1.0025887175046846E-5,0.002365242495133244
220,194.87585804148515,1.0134106213970544E-5,0.0023753766013472144
221,194.8419460840444,1.0185228075387129E-5,0.0023855618294226014
222,194.8103127761178,9.902562232320472E-6,0.002395464391654922
223,194.7797103409065,9.7431700411065E-6,0.0024052075616960286
224,194.7485412751841,9.733610384089013E-6,0.0024149411720801174
225,194.7181303042884,9.760068179088378E-6,0.002424701240259206
226,194.687471641618,9.63161597190943E-6,0.002434332856231115
227,194.65812839122466,9.614413779768412E-6,0.0024439472700108836
228,194.6285782537364,9.808029940619967E-6,0.0024537552999515035
229,194.59690076178023,9.850744166039035E-6,0.0024636060441175426
230,194.56495512455464,1.0106468100861534E-5,0.0024737125122184043
231,194.5319844598018,1.025981779592206E-5,0.0024839723300143263
232,194.49908868010067,1.030297699502509E-5,0.0024942753070093513
233,194.46715930875862,1.0175299271979111E-5,0.0025044506062813303
234,194.43433401531627,1.0098091412531855E-5,0.002514548697693862
235,194.40528896986544,9.859844792079608E-6,0.0025244085424859417
236,194.376602006899,9.896501206150396E-6,0.002534305043692092
237,194.347909023585,9.795703536946933E-6,0.002544100747229039
238,194.31833953075449,9.925878539175935E-6,0.002554026625768215
239,194.28948427269367,9.78999461507278E-6,0.0025638166203832877
240,194.26173283175103,9.995621081039732E-6,0.0025738122414643272
241,194.23567932260917,9.58063419339355E-6,0.0025833928756577207
242,194.20874419223605,9.803581838192173E-6,0.002593196457495913
243,194.1810051202578,9.988015179578584E-6,0.0026031844726754918
244,194.1528310865581,9.966704582124979E-6,0.0026131511772576168
245,194.12439017071674,9.864768806180226E-6,0.002623015946063797
246,194.0954393860161,9.955149627056525E-6,0.0026329710956908537
247,194.06791549496432,9.956763495075448E-6,0.002642927859185929
248,194.04100727991778,9.899062625355886E-6,0.002652826921811285
249,194.01374754185886,9.81455810378095E-6,0.002662641479915066
250,193.98602635017642,9.65140324619796E-6,0.002672292883161264
251,193.95802799567602,9.665890617061648E-6,0.0026819587737783256
252,193.93078167800613,9.680820555655531E-6,0.0026916395943339813
253,193.9032394914984,9.64897913537806E-6,0.0027012885734693593
254,193.87399028654394,9.81231116265229E-6,0.0027111008846320114
255,193.8438118190411,9.762006666706835E-6,0.002720862891298718
256,193.8150791233284,9.511976011026953E-6,0.002730374867309745
257,193.78729762190787,9.436703887473675E-6,0.002739811571197219
258,193.75872028018995,9.49908940088178E-6,0.0027493106605981006
259,193.72893497652046,9.645343776726729E-6,0.0027589560043748272
260,193.69823533876988,9.657207103555021E-6,0.002768613211478382
261,193.66541332519935,9.857443643188618E-6,0.0027784706551215706
262,193.6322765381193,9.790447211904952E-6,0.0027882611023334757
263,193.59760377542477,9.88635111195343E-6,0.002798147453445429
264,193.56302721090168,9.808611302498115E-6,0.0028079560647479274
265,193.52907993539998,9.63007837093472E-6,0.002817586143118862
266,193.4942974330205,9.750539532922249E-6,0.0028273366826517847
267,193.45824770079656,9.835084206377917E-6,0.002837171766858163
268,193.4206680396588,9.909511244212932E-6,0.0028470812781023758
269,193.38362200144644,9.801352583189643E-6,0.0028568826306855652
270,193.34779744533432,1.0111918700410687E-5,0.002866994549385976
271,193.31313705990925,1.0155346030333837E-5,0.0028771498954163095
272,193.2788756054831,1.0096634648237205E-5,0.002887246530064547
273,193.2450661162685,9.93022590254757E-6,0.0028971767559670945
274,193.21332721645052,9.642444794939267E-6,0.002906819200762034
275,193.1825241769063,9.634701366923315E-6,0.0029164539021289573
276,193.15226954531087,9.611305329785889E-6,0.002926065207458743
277,193.12240533745285,9.771623072632937E-6,0.002935836830531376
278,193.09175797283757,9.953086000538242E-6,0.0029457899165319145
279,193.06079033649792,9.976919888428275E-6,0.0029557668364203426
280,193.02999453687485,1.0035916100041508E-5,0.002965802752520384
281,192.99961906802858,9.866132062331445E-6,0.0029756688845827156
282,192.96911273074824,9.879023307111168E-6,0.0029855479078898265
283,192.94026439852638,9.737347698805976E-6,0.0029952852555886326
284,192.9102847294323,9.864956951505472E-6,0.003005150212540138
285,192.88195840328382,9.737544591471269E-6,0.0030148877571316095
286,192.8549477719125,9.723325351431607E-6,0.003024611082483041
287,192.82758865144177,9.759433973623067E-6,0.003034370516456664
288,192.79751908657263,9.89190923176046E-6,0.0030442624256884245
289,192.76792118514595,9.952839502966718E-6,0.0030542152651913913
290,192.73857832577283,9.896843529038404E-6,0.0030641121087204297
291,192.70960541938115,9.765460174738003E-6,0.0030738775688951676
292,192.68036179043347,9.88378448313379E-6,0.0030837613533783014
293,192.65350479855553,9.919118199351625E-6,0.003093680471577653
294,192.62694903773507,9.966110393620503E-6,0.0031036465819712735
295,192.6005289335433,1.0002805594977022E-5,0.0031136493875662504
296,192.5717198479799,1.005714716113608E-5,0.0031237065347273865
297,192.54384300167172,9.845061974322697E-6,0.0031335515967017094
298,192.5155097998725,9.91649424280641E-6,0.0031434680909445158
299,192.4863261428886,9.907234701453095E-6,0.003153375325645969
300,192.4576002062242,9.825824835300833E-6,0.00316320115048127
301,192.42914681158967,9.840824393556682E-6,0.0031730419748748264
302,192.39992019643594,9.992851190241176E-6,0.0031830348260650674
303,192.37041828928142,9.911846427779507E-6,0.003192946672492847
304,192.34030905784468,9.827293217768302E-6,0.003202773965710615
305,192.3103972529981,9.808109413845117E-6,0.0032125820751244603
