#t,ESS,tempDiff,temp
0,200.00000000000065,0.0,0.0
1,199.99979999999974,6.0343100328106655E-6,6.0343100328106655E-6
2,199.99920363238994,6.005324811780279E-6,1.2039634844590945E-5
3,199.99821125821276,6.064891633275926E-6,1.810452647786687E-5
4,199.9968249142913,6.073930074976188E-6,2.417845655284306E-5
5,199.99504514034805,6.122269678502729E-6,3.0300726231345786E-5
6,199.9928768008033,6.158851227043668E-6,3.645957745838945E-5
7,199.99032526669978,6.193504853973418E-6,4.265308231236287E-5
8,199.98738713776035,6.214543507811345E-6,4.886762582017422E-5
9,199.98406853539618,6.207350627485529E-6,5.507497644765975E-5
10,199.9803781962825,6.205906534978737E-6,6.128088298263849E-5
11,199.97633247773572,6.132320572742793E-6,6.741320355538128E-5
12,199.9719005233673,6.155021283269983E-6,7.356822483865126E-5
13,199.9671001493022,6.113922740387195E-6,7.968214757903845E-5
14,199.96196549120071,6.1572440437514934E-6,8.583939162278995E-5
15,199.95647064688077,6.0606689634698335E-6,9.190006058625978E-5
16,199.9506061127479,5.9210941749853545E-6,9.782115476124513E-5
17,199.944387919321,5.9231684642178715E-6,1.03744323225463E-4
18,199.93780870466864,5.884426429129244E-6,1.0962874965459224E-4
19,199.93085561267415,5.950459537989626E-6,1.1557920919258186E-4
20,199.9235859705867,5.8546186281574076E-6,1.2143382782073927E-4
21,199.9159578026013,5.8746477083234636E-6,1.2730847552906274E-4
22,199.90796101055224,5.823904080447935E-6,1.3313237960951068E-4
23,199.89960055965796,5.770882537316479E-6,1.3890326214682715E-4
24,199.89091175926174,5.7825782531929856E-6,1.4468584040002014E-4
25,199.88193390849858,5.8518750178165585E-6,1.505377154178367E-4
26,199.8725828787135,5.9286836957027455E-6,1.5646639911353943E-4
27,199.86293070765353,5.999744059141516E-6,1.6246614317268096E-4
28,199.85292712962973,5.966921244061895E-6,1.6843306441674286E-4
29,199.84256714160963,6.027204626631935E-6,1.744602690433748E-4
30,199.83184804751588,6.0538228613700486E-6,1.8051409190474485E-4
31,199.82084499498274,5.901287734112686E-6,1.8641537963885754E-4
32,199.80955098192237,5.952882695314006E-6,1.9236826233417156E-4
33,199.7979611914998,5.952168252598933E-6,1.983204305867705E-4
34,199.78610004779645,5.907563068020234E-6,2.042279936547907E-4
35,199.7738898339958,5.879328449009086E-6,2.101073221037998E-4
36,199.761376124308,5.809100886976339E-6,2.1591642299077614E-4
37,199.74856177935663,5.748187902395197E-6,2.2166461089317133E-4
38,199.73549595427687,5.8075955981234944E-6,2.2747220649129481E-4
39,199.72216016921132,5.7419447485860605E-6,2.3321415123988087E-4
40,199.70841085489278,5.760528978879378E-6,2.3897468021876026E-4
41,199.69434685541876,5.785303568816126E-6,2.447599837875764E-4
42,199.67998628425295,5.810396708593126E-6,2.5057038049616955E-4
43,199.66532653805567,5.792478070877815E-6,2.5636285856704737E-4
44,199.6502885667726,5.7557609999962044E-6,2.621186195670436E-4
45,199.63496193833615,5.6677635201477064E-6,2.677863830871913E-4
46,199.61926884448698,5.64192708838643E-6,2.7342831017557775E-4
47,199.6032221118954,5.603234099971967E-6,2.790315442755497E-4
48,199.58689090668716,5.636019466701054E-6,2.8466756374225075E-4
49,199.5702732623664,5.672683258558397E-6,2.9034024700080917E-4
50,199.55338039062042,5.6669419076119665E-6,2.960071889084211E-4
51,199.53630531475017,5.652109600590545E-6,3.016592985090117E-4
52,199.51897209737305,5.628034079864235E-6,3.0728733258887593E-4
53,199.50133119976738,5.596827327965782E-6,3.128841599168417E-4
54,199.48343634345542,5.568980619737821E-6,3.184531405365795E-4
55,199.46530644298062,5.581413467533144E-6,3.2403455400411267E-4
56,199.44685256689237,5.563671460345521E-6,3.295982254644582E-4
57,199.42814409778356,5.547803955775484E-6,3.351460294202337E-4
58,199.40908138481234,5.481402218663784E-6,3.406274316388975E-4
59,199.3897721550123,5.51943240870701E-6,3.461468640476045E-4
60,199.37032994250916,5.581821076605005E-6,3.5172868512420947E-4
61,199.3506754525614,5.542224959587334E-6,3.572709100837968E-4
62,199.33073773384035,5.5295868487204186E-6,3.6280049693251725E-4
63,199.3105905146373,5.5088476111753855E-6,3.6830934454369266E-4
64,199.29029519331576,5.456921366176091E-6,3.7376626590986876E-4
65,199.26975423513161,5.450019666039488E-6,3.792162855759082E-4
66,199.24880957196723,5.449274891693143E-6,3.846655604676014E-4
67,199.22752860466267,5.504980780771198E-6,3.901705412483726E-4
68,199.20588394245095,5.503368845182475E-6,3.956739100935551E-4
69,199.18380521171952,5.507287247564134E-6,4.011811973411192E-4
70,199.16145668412227,5.528973559091163E-6,4.067101709002104E-4
71,199.1388237379022,5.523408260717218E-6,4.122335791609276E-4
72,199.11599161605614,5.558650578235984E-6,4.177922297391636E-4
73,199.09270963794577,5.540866214787449E-6,4.233330959539511E-4
74,199.06908890814208,5.548617434864038E-6,4.2888171338881513E-4
75,199.04515389560538,5.52993903256941E-6,4.3441165242138455E-4
76,199.02092472589732,5.581979152843762E-6,4.399936315742283E-4
77,198.99653664342495,5.6148396059448775E-6,4.4560847118017317E-4
78,198.97190887784612,5.642763600499353E-6,4.512512347806725E-4
79,198.94697634957973,5.64808458310786E-6,4.5689931936378035E-4
80,198.92168021161729,5.679909777897754E-6,4.625792291416781E-4
81,198.89628052670216,5.6978746137427296E-6,4.6827710375542083E-4
82,198.87060626927104,5.714540280632817E-6,4.7399164403605365E-4
83,198.8445316067933,5.663993971434353E-6,4.79655638007488E-4
84,198.81826645475536,5.694637676864967E-6,4.8535027568435296E-4
85,198.7920282836897,5.68548992614786E-6,4.910357656105008E-4
86,198.76554519855083,5.700739252852684E-6,4.967365048633535E-4
87,198.73874518756796,5.735217831150158E-6,5.024717226945036E-4
88,198.71165114241774,5.686661065287203E-6,5.081583837597909E-4
89,198.6845545762798,5.678245680891184E-6,5.13836629440682E-4
90,198.6573244944025,5.656319817360319E-6,5.194929492580424E-4
91,198.62980659804495,5.736968324735563E-6,5.25229917582778E-4
92,198.60187849278253,5.758181457301289E-6,5.309880990400792E-4
93,198.5738620828943,5.777297368563713E-6,5.367653964086429E-4
94,198.54566789181146,5.836019259392425E-6,5.426014156680353E-4
95,198.51698293778213,5.890914930547983E-6,5.484923305985834E-4
96,198.48800763441673,5.885493067071826E-6,5.543778236656552E-4
97,198.4588771938673,5.890388729627921E-6,5.602682123952832E-4
98,198.42982714670467,5.935863934510791E-6,5.66204076329794E-4
99,198.40072868753992,5.984372744317647E-6,5.721884490741116E-4
100,198.37156907586186,5.995852132432786E-6,5.781843012065444E-4
101,198.34215966778294,6.025105853235264E-6,5.842094070597797E-4
102,198.3127541370692,6.026238705661503E-6,5.902356457654412E-4
103,198.28309844450567,5.966879925688668E-6,5.962025256911298E-4
104,198.25330995228694,5.935852366226156E-6,6.02138378057356E-4
105,198.22323232227762,5.9864756745837106E-6,6.081248537319398E-4
106,198.19292708937803,6.09221989383813E-6,6.142170736257779E-4
107,198.1627344388877,6.152695345479522E-6,6.203697689712574E-4
108,198.1321556789237,6.211049970180286E-6,6.265808189414377E-4
109,198.10156238891395,6.176039481957654E-6,6.327568584233954E-4
110,198.0707797243717,6.132527802105718E-6,6.38889386225501E-4
111,198.0395135649156,6.103324066720252E-6,6.449927102922212E-4
112,198.0082892655367,6.083430928810828E-6,6.51076141221032E-4
113,197.97670533564624,6.082861081551184E-6,6.571590023025832E-4
114,197.94480678270932,6.03245238743612E-6,6.631914546900193E-4
115,197.91264873261738,6.057871721179569E-6,6.692493264111989E-4
116,197.880175040383,6.040703172724423E-6,6.752900295839233E-4
117,197.84732616351573,6.050390794045486E-6,6.813404203779688E-4
118,197.81416990645465,6.056124379142362E-6,6.873965447571111E-4
119,197.7807991978639,6.09546629473686E-6,6.93492011051848E-4
120,197.74732231228788,6.118807053179839E-6,6.996108181050279E-4
121,197.71372467934006,6.099384422980519E-6,7.057102025280084E-4
122,197.68032301848876,6.02666728298578E-6,7.117368698109942E-4
123,197.64661720897615,6.0567933308099265E-6,7.177936631418042E-4
124,197.61247500989495,6.067457888035414E-6,7.238611210298396E-4
125,197.57797800363477,6.024094831824198E-6,7.298852158616638E-4
126,197.54288971053376,6.074064285052101E-6,7.359592801467159E-4
127,197.5073702356856,6.0090375982342535E-6,7.419683177449502E-4
128,197.47185310705433,6.0909900339664175E-6,7.480593077789166E-4
129,197.43666276786303,6.064653888298247E-6,7.541239616672149E-4
130,197.40152517876078,6.055954061778977E-6,7.601799157289939E-4
131,197.3668049769412,6.1115209190578405E-6,7.662914366480517E-4
132,197.33187908480625,6.133704449043166E-6,7.724251410970948E-4
133,197.2965774039296,6.183844440369349E-6,7.786089855374642E-4
134,197.26108397076084,6.073551113992074E-6,7.846825366514563E-4
135,197.2252919428303,6.04733187478281E-6,7.907298685262391E-4
136,197.18949166844223,6.001331291480544E-6,7.967311998177196E-4
137,197.15302434478068,6.012573762749197E-6,8.027437735804689E-4
138,197.11662772402772,5.9369538355560615E-6,8.086807274160249E-4
139,197.07979221607232,5.9453727544394796E-6,8.146261001704643E-4
140,197.0426884276849,5.941140178266463E-6,8.205672403487307E-4
141,197.00532204614524,5.95030986400347E-6,8.265175502127342E-4
142,196.96758110601658,6.0520664292922096E-6,8.325696166420264E-4
143,196.92991020336288,6.074515158184957E-6,8.386441318002114E-4
144,196.89205790156288,6.024527240044507E-6,8.446686590402559E-4
145,196.85353184398548,6.063312618828781E-6,8.507319716590847E-4
146,196.81444589809072,6.07575280964448E-6,8.568077244687292E-4
147,196.7753746913314,6.150266431093907E-6,8.62957990899823E-4
148,196.73571293738405,6.214034870812545E-6,8.691720257706356E-4
149,196.6958006100117,6.2724542095152365E-6,8.754444799801509E-4
150,196.65567233511,6.160952482781041E-6,8.816054324629319E-4
151,196.61537498966155,6.096035913488011E-6,8.8770146837642E-4
152,196.57511858579366,6.116911297681186E-6,8.938183796741012E-4
153,196.53464020528622,6.080739006932685E-6,8.998991186810339E-4
154,196.4939639343052,6.038857759408211E-6,9.059379764404421E-4
155,196.45315179860086,5.992201277574831E-6,9.119301777180169E-4
156,196.41205929211984,6.020791420168895E-6,9.179509691381858E-4
157,196.37087358490666,6.0076973454583804E-6,9.239586664836441E-4
158,196.32950956147533,6.01753340241038E-6,9.299761998860544E-4
159,196.28837590532137,6.0045700339324716E-6,9.359807699199869E-4
160,196.24732132030826,6.042661934086162E-6,9.420234318540731E-4
161,196.20658303027452,6.071581439267991E-6,9.480950132933411E-4
162,196.16532188540438,6.007789157589457E-6,9.541028024509305E-4
163,196.12416246241366,5.969337547102985E-6,9.600721399980335E-4
164,196.0831200948143,5.924685229284504E-6,9.65996825227318E-4
165,196.04185245625627,5.9245534479973264E-6,9.719213786753153E-4
166,196.00043701146072,5.951445513028934E-6,9.778728241883442E-4
167,195.95877574414666,5.978937340856374E-6,9.838517615292006E-4
168,195.91705172960886,5.925048288571202E-6,9.897768098177718E-4
169,195.87531610722382,5.895780889656829E-6,9.956725907074287E-4
170,195.83340299104927,5.950958532705451E-6,0.0010016235492401342
171,195.7919571584376,5.95588261603986E-6,0.001007579431856174
172,195.75080172654253,5.958021018679375E-6,0.0010135374528748534
173,195.7095317987295,5.971928464235762E-6,0.0010195093813390893
174,195.6682151208259,5.9587951592297885E-6,0.001025468176498319
175,195.6265230869036,5.960025173737633E-6,0.0010314282016720567
176,195.5850710220009,6.020188914626186E-6,0.0010374483905866828
177,195.54337739436235,6.04982647957601E-6,0.0010434982170662588
178,195.50065467143622,6.050593133106663E-6,0.0010495488101993655
179,195.4581060984,6.012387483245605E-6,0.0010555611976826112
180,195.41583739349122,6.016326758501873E-6,0.0010615775244411131
181,195.3728132532848,5.886169168077421E-6,0.0010674636936091905
182,195.3297575928092,5.8609928804981256E-6,0.0010733246864896887
183,195.28597722385973,5.699384372566395E-6,0.0010790240708622551
184,195.24233387429445,5.707542545156336E-6,0.0010847316134074115
185,195.19836656899733,5.703866641461935E-6,0.0010904354800488733
186,195.15478154413339,5.660947753977579E-6,0.0010960964278028508
187,195.11046740563293,5.694885011820639E-6,0.0011017913128146715
188,195.0661383251318,5.742640873734827E-6,0.0011075339536884064
189,195.02132914193953,5.715058714671467E-6,0.0011132490124030779
190,194.97620889212524,5.773964175179937E-6,0.0011190229765782578
191,194.93084976711364,5.827292933587021E-6,0.0011248502695118449
192,194.88548280244677,5.8569814090527225E-6,0.0011307072509208977
193,194.84028980455085,5.829345767293576E-6,0.0011365365966881913
194,194.79483936907764,5.752990379308574E-6,0.0011422895870675
195,194.7491382536063,5.774483443896212E-6,0.0011480640705113963
196,194.70319852123507,5.82801427087697E-6,0.0011538920847822733
197,194.65657484178465,5.775641559608823E-6,0.0011596677263418821
198,194.60942394651505,5.669565152189315E-6,0.0011653372914940715
199,194.56169103875632,5.655559648742136E-6,0.0011709928511428136
200,194.51393820608243,5.66604083389424E-6,0.001176658891976708
201,194.4657977410605,5.675720836477841E-6,0.0011823346128131858
202,194.4177801087117,5.5836646771909755E-6,0.0011879182774903766
203,194.36936095884337,5.555610244716477E-6,0.0011934738877350931
204,194.32029133451056,5.539452715832215E-6,0.0011990133404509253
205,194.27066424338182,5.472482135250849E-6,0.0012044858225861762
206,194.22093399212255,5.412870536996849E-6,0.001209898693123173
207,194.1707431740767,5.382256023776231E-6,0.0012152809491469492
208,194.12052277491168,5.34124514061707E-6,0.0012206221942875663
209,194.07013370111994,5.382303865576999E-6,0.0012260044981531432
210,194.01982838466589,5.386682599828389E-6,0.0012313911807529717
211,193.97001999707433,5.384715608481922E-6,0.0012367758963614537
212,193.91995321508142,5.354140262152784E-6,0.0012421300366236064
213,193.8698631644508,5.378009213459448E-6,0.001247508045837066
214,193.81987966138692,5.371363632149156E-6,0.0012528794094692152
215,193.76939209140767,5.425817987515974E-6,0.0012583052274567311
216,193.71859631868392,5.460782001898287E-6,0.0012637660094586293
217,193.667835765294,5.430120452111839E-6,0.0012691961299107412
218,193.61655370054703,5.40869830627982E-6,0.0012746048282170212
219,193.56496528931999,5.397813524658799E-6,0.00128000264174168
220,193.51352666264694,5.367540248856976E-6,0.0012853701819905369
221,193.46158924403284,5.363886863017772E-6,0.0012907340688535546
222,193.40922017324482,5.377439666158182E-6,0.0012961115085197128
223,193.3565184973537,5.37999272440235E-6,0.0013014915012441151
224,193.30505904586522,5.4119404339524795E-6,0.0013069034416780677
225,193.25302325973354,5.412427654406462E-6,0.0013123158693324742
226,193.20028463687422,5.410140378846577E-6,0.0013177260097113207
227,193.14757883423084,5.4606888938246056E-6,0.0013231866986051454
228,193.09461938709293,5.4512907534643846E-6,0.0013286379893586097
229,193.04142812577112,5.554371083470156E-6,0.00133419236044208
230,192.98846655122634,5.47524730906972E-6,0.0013396676077511497
231,192.93552036739624,5.503825319194794E-6,0.0013451714330703444
232,192.88176256959764,5.395358688177365E-6,0.0013505667917585217
233,192.82810823486767,5.419861988160873E-6,0.0013559866537466827
234,192.77406950672906,5.376408190039255E-6,0.001361363061936722
235,192.7200550787273,5.352759966313948E-6,0.001366715821903036
236,192.66630650186477,5.327613817093982E-6,0.00137204343572013
237,192.61229248832646,5.36999623135072E-6,0.0013774134319514807
238,192.5582339273115,5.441771744314692E-6,0.0013828552036957954
239,192.50432573176792,5.408206514796486E-6,0.0013882634102105919
240,192.45011640405275,5.459624189093076E-6,0.001393723034399685
241,192.39598407606087,5.3971350059336406E-6,0.0013991201694056187
242,192.34230680654866,5.402538495175904E-6,0.0014045227079007945
243,192.28803601810515,5.445007985964842E-6,0.0014099677158867594
244,192.23340398889647,5.365860862107782E-6,0.0014153335767488672
245,192.17877122667667,5.355685261964804E-6,0.001420689262010832
246,192.12396123649572,5.3290652406161754E-6,0.0014260183272514482
247,192.0692898999098,5.363536784955031E-6,0.0014313818640364032
248,192.0153126109132,5.348870569351478E-6,0.0014367307346057547
249,191.96147748017665,5.33095586388237E-6,0.001442061690469637
250,191.90710252888664,5.355421166014324E-6,0.0014474171116356513
251,191.85277858219027,5.318173045572726E-6,0.001452735284681224
252,191.79795257077637,5.318903289097715E-6,0.0014580541879703217
253,191.74261075161738,5.38849065545127E-6,0.001463442678625773
254,191.68719210572803,5.380784402310733E-6,0.0014688234630280837
255,191.63147231625808,5.361305230198291E-6,0.001474184768258282
256,191.57605064765144,5.358219623751524E-6,0.0014795429878820335
257,191.52073364480762,5.4047133831822485E-6,0.0014849477012652157
258,191.46577162352057,5.420233938676406E-6,0.0014903679352038922
259,191.40990160138713,5.468991009149781E-6,0.001495836926213042
260,191.35378164680634,5.455514884198442E-6,0.0015012924410972403
261,191.29720752532538,5.476474751934685E-6,0.001506768915849175
262,191.2405604117183,5.51808587845917E-6,0.0015122870017276343
263,191.18351271310493,5.483259292609733E-6,0.001517770261020244
264,191.1258522699719,5.4427972208474745E-6,0.0015232130582410915
265,191.0678775179301,5.413913866226198E-6,0.0015286269721073178
266,191.00929418544476,5.337605679256114E-6,0.0015339645777865739
267,190.95064763765518,5.342680947340286E-6,0.0015393072587339142
268,190.89163788130546,5.444528872203839E-6,0.0015447517876061182
269,190.83270878687338,5.474727301045861E-6,0.001550226514907164
270,190.77365553725963,5.519158510039974E-6,0.001555745673417204
271,190.71509790322708,5.395612637037491E-6,0.0015611412860542415
272,190.65651052155926,5.374365022921283E-6,0.0015665156510771628
273,190.59822642394766,5.3550914630666766E-6,0.0015718707425402293
274,190.54071271814973,5.3902213495847E-6,0.0015772609638898141
275,190.4831244271171,5.477707351099794E-6,0.001582738671240914
276,190.42545201365633,5.484145132310407E-6,0.0015882228163732245
277,190.36775716360341,5.457427509888622E-6,0.001593680243883113
278,190.31007780174605,5.396905094417423E-6,0.0015990771489775304
279,190.25236022090803,5.363704958340995E-6,0.0016044408539358714
280,190.19371900328176,5.433781562126957E-6,0.0016098746354979983
281,190.13503455547092,5.483486657002467E-6,0.0016153581221550006
282,190.07618853983172,5.490914188924918E-6,0.0016208490363439256
283,190.01743505335455,5.569996136286077E-6,0.0016264190324802117
284,189.95857418336635,5.463952768499079E-6,0.0016318829852487108
285,189.89945438669892,5.430543590469413E-6,0.0016373135288391802
286,189.84004177107246,5.4687386311845955E-6,0.0016427822674703648
287,189.78077750012548,5.5210241206081176E-6,0.001648303291590973
288,189.72114447274876,5.494346584654405E-6,0.0016537976381756274
289,189.66165411832324,5.570543770881957E-6,0.0016593681819465093
290,189.60173121218574,5.520802699990165E-6,0.0016648889846464995
291,189.54187693191108,5.516030047611617E-6,0.0016704050146941112
292,189.48140812396966,5.533176655554708E-6,0.0016759381913496658
293,189.42158733223087,5.575878077657498E-6,0.0016815140694273233
294,189.3611461452242,5.606345994343569E-6,0.001687120415421667
295,189.29968903201785,5.649537671892056E-6,0.001692769953093559
296,189.2374959184055,5.63672578375554E-6,0.0016984066788773146
297,189.1754830975523,5.5842813366563795E-6,0.001703990960213971
298,189.1141926231368,5.623418410675976E-6,0.001709614378624647
299,189.05241195937032,5.601815936828466E-6,0.0017152161945614755
300,188.9898943129611,5.607854625683874E-6,0.0017208240491871595
301,188.92690853422704,5.654566713445431E-6,0.0017264786159006049
302,188.8636318250415,5.616060856665502E-6,0.0017320946767572704
303,188.79989945588642,5.636945324461227E-6,0.0017377316220817316
304,188.7345743324337,5.720417991143444E-6,0.001743452040072875
305,188.6682110007833,5.617752184947976E-6,0.001749069792257823
306,188.6029467476503,5.607437560175889E-6,0.001754677229817999
307,188.53794655266879,5.494885420614327E-6,0.0017601721152386133
