#t,ESS,tempDiff,temp
0,200.00000000000065,0.0,0.0
1,199.99980000000014,9.802213190409286E-6,9.802213190409286E-6
2,199.99920388389285,9.803848432009743E-6,1.960606162241903E-5
3,199.9982167007484,9.776372168375903E-6,2.9382433790794932E-5
4,199.99683633919727,9.86553450852415E-6,3.924796829931908E-5
5,199.99506847075827,9.910851970673155E-6,4.9158820269992235E-5
6,199.9929164392144,9.838882417233824E-6,5.899770268722606E-5
7,199.99038919906366,9.78197456132179E-6,6.877967724854785E-5
8,199.98748288219764,9.673198226049092E-6,7.845287547459694E-5
9,199.98419780794518,9.594572974394762E-6,8.80474484489917E-5
10,199.98054887763166,9.686121819927877E-6,9.773357026891958E-5
11,199.9765276903246,9.586939995375159E-6,1.0732051026429473E-4
12,199.97214814985307,9.606856378834379E-6,1.1692736664312912E-4
13,199.967429131662,9.618612044612291E-6,1.265459786877414E-4
14,199.96235909496176,9.721910190483962E-6,1.3626788887822537E-4
15,199.95694061090325,9.886094175975312E-6,1.4615398305420067E-4
16,199.95121720670872,9.999478478453433E-6,1.561534615326541E-4
17,199.94515754824388,1.0104353436408704E-5,1.662578149690628E-4
18,199.9387383860706,1.0078226048400739E-5,1.7633604101746354E-4
19,199.93201465280853,9.774349992648534E-6,1.8611039101011208E-4
20,199.92491746003614,9.73486480884026E-6,1.9584525581895233E-4
21,199.9175006590447,9.890184555540628E-6,2.0573544037449297E-4
22,199.90970294363342,9.918869975182975E-6,2.1565431034967594E-4
23,199.90161527896765,9.860529100914949E-6,2.255148394505909E-4
24,199.89317761250504,9.824339921829089E-6,2.3533917937241998E-4
25,199.88439059339615,9.674468715772955E-6,2.4501364808819295E-4
26,199.87531189217387,9.873008467161099E-6,2.5488665655535404E-4
27,199.86582606700617,9.774853013212531E-6,2.6466150956856656E-4
28,199.85603051489295,9.903342176578547E-6,2.745648517451451E-4
29,199.84598571005586,9.891240897698503E-6,2.844560926428436E-4
30,199.83565753893302,9.833377298582846E-6,2.942894699414264E-4
31,199.82506811595053,9.883945366785009E-6,3.041734153082114E-4
32,199.81415634579477,9.866561720629155E-6,3.1403997702884054E-4
33,199.8031301527972,9.803737124903338E-6,3.238437141537439E-4
34,199.7917719209793,9.65556498643413E-6,3.33499279140178E-4
35,199.7800617157569,9.582676331413613E-6,3.430819554715916E-4
36,199.76809100387626,9.525500443203454E-6,3.526074559147951E-4
37,199.75583058103962,9.437548598624788E-6,3.620450045134199E-4
38,199.74325819645483,9.436116058890772E-6,3.7148112057231066E-4
39,199.73048051209494,9.306819084747228E-6,3.807879396570579E-4
40,199.7173902421608,9.424312574324242E-6,3.902122522313821E-4
41,199.70405319030567,9.500102374166274E-6,3.997123546055484E-4
42,199.69040389288398,9.405103147217405E-6,4.0911745775276583E-4
43,199.6763157967724,9.405527748994224E-6,4.1852298550176006E-4
44,199.66188447467636,9.492316983628205E-6,4.2801530248538826E-4
45,199.6471712805031,9.547132312895971E-6,4.3756243479828425E-4
46,199.6323176188554,9.634158446191642E-6,4.4719659324447586E-4
47,199.6171202058746,9.77299435666167E-6,4.5696958760113756E-4
48,199.60170356048124,9.87645255253995E-6,4.668460401536775E-4
49,199.58602896559492,9.667691157446646E-6,4.7651373131112415E-4
50,199.5701896025917,9.586229207857502E-6,4.8609996051898166E-4
51,199.55407765376322,9.418827477546148E-6,4.955187879965279E-4
52,199.53759236621295,9.298030158788207E-6,5.048168181553161E-4
53,199.52071560469452,9.397830759339683E-6,5.142146489146558E-4
54,199.5036942123117,9.34572089121812E-6,5.235603698058739E-4
55,199.4862493183132,9.191306687222461E-6,5.327516764930964E-4
56,199.46857279093587,9.229009850124435E-6,5.419806863432208E-4
57,199.45066818606,9.108457272076203E-6,5.51089143615297E-4
58,199.4325510226254,9.238341131767962E-6,5.60327484747065E-4
59,199.4140893223688,9.242749765758094E-6,5.69570234512823E-4
60,199.39554963951042,9.300162263428502E-6,5.788703967762515E-4
61,199.37690854482233,9.1624503506038E-6,5.880328471268553E-4
62,199.35803122248856,9.10810051127157E-6,5.971409476381268E-4
63,199.33881348810502,9.072654339039374E-6,6.062136019771662E-4
64,199.31916535629765,8.995888319556236E-6,6.152094902967224E-4
65,199.29913704291008,8.927080633133752E-6,6.241365709298562E-4
66,199.27873440457412,8.937328242411399E-6,6.330738991722676E-4
67,199.25832548372986,8.954987925647489E-6,6.420288870979151E-4
68,199.23768629795396,8.917299619178485E-6,6.509461867170936E-4
69,199.2166631115854,9.142841850418176E-6,6.600890285675118E-4
70,199.19544995939103,9.033664121736098E-6,6.691226926892479E-4
71,199.17395803847543,9.277161583198977E-6,6.783998542724469E-4
72,199.15230021485914,9.198732630758844E-6,6.875985869032058E-4
73,199.13029266324833,9.170970518379983E-6,6.967695574215857E-4
74,199.10808741415414,9.120795184685133E-6,7.058903526062709E-4
75,199.0857765280832,9.386696961497158E-6,7.152770495677681E-4
76,199.06323559213365,9.391655196262537E-6,7.246687047640307E-4
77,199.04041909657343,9.465062152125192E-6,7.341337669161559E-4
78,199.01726056129382,9.469117646466588E-6,7.436028845626225E-4
79,198.99386942190154,9.500038248526E-6,7.531029228111485E-4
80,198.97051449048007,9.463225830315298E-6,7.625661486414638E-4
81,198.94696559273103,9.44761731563123E-6,7.720137659570951E-4
82,198.9231851406729,9.485966128344698E-6,7.814997320854397E-4
83,198.89910325220865,9.58096433071064E-6,7.910806964161504E-4
84,198.87494444837088,9.395391520718705E-6,8.004760879368691E-4
85,198.8504432429561,9.31228757417663E-6,8.097883755110457E-4
86,198.82551023909264,9.293103858355495E-6,8.190814793694012E-4
87,198.8006125284608,9.171701653398493E-6,8.282531810227997E-4
88,198.77576026315984,9.231400552745769E-6,8.374845815755454E-4
89,198.7506028032516,9.318694147387361E-6,8.468032757229328E-4
90,198.72546673594488,9.295288955642266E-6,8.560985646785751E-4
91,198.7002306029107,9.257824863082301E-6,8.653563895416574E-4
92,198.67467302140653,9.344823117095187E-6,8.747012126587526E-4
93,198.64907726292702,9.340637040675213E-6,8.840418496994278E-4
94,198.62362271976409,9.592942698586673E-6,8.936347923980145E-4
95,198.598005975718,9.545965073670242E-6,9.031807574716847E-4
96,198.57211808991747,9.388636497059227E-6,9.125693939687439E-4
97,198.54603948246634,9.393369498545618E-6,9.219627634672895E-4
98,198.51978455784064,9.456080517659974E-6,9.314188439849495E-4
99,198.49329673788984,9.432344626875625E-6,9.408511886118251E-4
100,198.46617513834687,9.550425042585435E-6,9.504016136544105E-4
101,198.43886909121176,9.501099061493477E-6,9.59902712715904E-4
102,198.41155797125165,9.438087912078054E-6,9.693408006279821E-4
103,198.38405517040079,9.431923381998993E-6,9.78772724009981E-4
104,198.35627932227874,9.419728925431836E-6,9.881924529354129E-4
105,198.32800436712316,9.287394211863063E-6,9.974798471472758E-4
106,198.29956292984014,9.197210583175062E-6,0.001006677057730451
107,198.27160351530208,9.185712512217054E-6,0.001015862770242668
108,198.24349975632833,9.192217286198048E-6,0.001025054987528866
109,198.21509764189014,9.301216260678488E-6,0.0010343562037895444
110,198.18698057250614,9.32015541528764E-6,0.001043676359204832
111,198.1587138125217,9.361260913642702E-6,0.0010530376201184747
112,198.13052967762167,9.398737569190062E-6,0.0010624363576876648
113,198.10224251244722,9.272821924266238E-6,0.0010717091796119311
114,198.07359139319462,9.27937362921448E-6,0.0010809885532411456
115,198.04497870450598,9.160680670840222E-6,0.0010901492339119858
116,198.01593674183792,9.137539957801135E-6,0.001099286773869787
117,197.98674138250425,9.096964685239093E-6,0.001108383738555026
118,197.95738093739064,9.1097598527177E-6,0.0011174934984077437
119,197.92774514544195,9.045545125777903E-6,0.0011265390435335216
120,197.89786813032984,9.055402323293338E-6,0.001135594445856815
121,197.86792310697203,9.187782243944096E-6,0.001144782228100759
122,197.83752357104223,9.050339777981365E-6,0.0011538325678787404
123,197.80720667719712,8.982571716315252E-6,0.0011628151395950556
124,197.7770140956019,8.873986088971133E-6,0.0011716891256840266
125,197.746759678901,8.774910614775422E-6,0.001180464036298802
126,197.71630522261415,8.724765144212073E-6,0.001189188801443014
127,197.6856955348949,8.80931768192858E-6,0.0011979981191249426
128,197.65511446672568,8.767705690019843E-6,0.0012067658248149625
129,197.62416204504774,8.851280108913124E-6,0.0012156171049238756
130,197.59322212366524,8.8261025089013E-6,0.0012244432074327769
131,197.56214612123296,8.682631929232437E-6,0.0012331258393620092
132,197.53061638730233,8.554496272660846E-6,0.00124168033563467
133,197.49925874954224,8.571058869072892E-6,0.001250251394503743
134,197.46744475484155,8.623506524464306E-6,0.0012588749010282072
135,197.435332128968,8.525775232079567E-6,0.0012674006762602868
136,197.40308444556436,8.535924921155497E-6,0.0012759366011814424
137,197.37128517553487,8.750645902138467E-6,0.0012846872470835809
138,197.339154225488,8.705014950935228E-6,0.001293392262034516
139,197.30668941318808,8.713939478604239E-6,0.0013021062015131203
140,197.27408407143227,8.737840330724008E-6,0.0013108440418438444
141,197.24143478503305,8.671882278305707E-6,0.0013195159241221502
142,197.20897398943328,8.713554106062437E-6,0.0013282294782282127
143,197.17640178917662,8.725062059285381E-6,0.0013369545402874981
144,197.14342242443672,8.808603974620477E-6,0.0013457631442621186
145,197.1104305162483,8.65079403992776E-6,0.0013544139383020464
146,197.0772438087056,8.721011212042213E-6,0.0013631349495140887
147,197.04352387942507,8.630252173776974E-6,0.0013717652016878657
148,197.00924503168554,8.605272579987302E-6,0.001380370474267853
149,196.97465145347488,8.66205764874242E-6,0.0013890325319165953
150,196.94009923966738,8.677170221833142E-6,0.0013977097021384284
151,196.90547966460664,8.694771725555406E-6,0.0014064044738639838
152,196.8710898999806,8.694521763012578E-6,0.0014150989956269965
153,196.83649823150597,8.647002421248439E-6,0.0014237459980482449
154,196.80176041446393,8.723141787584025E-6,0.001432469139835829
155,196.76671466580035,8.728768034591995E-6,0.001441197907870421
156,196.73150196910626,8.68068242539116E-6,0.0014498785902958122
157,196.69643638878452,8.815945983072062E-6,0.0014586945362788843
158,196.66201057770053,8.805057958796663E-6,0.001467499594237681
159,196.62747560155708,8.810563751677456E-6,0.0014763101579893584
160,196.59247748203256,8.724474189073996E-6,0.0014850346321784323
161,196.5568792376789,8.737036740270636E-6,0.0014937716689187028
162,196.52156589190477,8.605143726691112E-6,0.001502376812645394
163,196.48569122843693,8.61021647484187E-6,0.0015109870291202358
164,196.44957572098534,8.669714418640692E-6,0.0015196567435388766
165,196.41343084216376,8.75984480488792E-6,0.0015284165883437644
166,196.37730226235604,8.730451636113022E-6,0.0015371470399798775
167,196.34118641401795,8.861929601481897E-6,0.0015460089695813594
168,196.3048951896211,8.939457997733806E-6,0.0015549484275790932
169,196.26862060271824,8.957314625028529E-6,0.0015639057422041217
170,196.2327530848575,8.891708580054534E-6,0.0015727974507841762
171,196.19670402558603,8.969698810144702E-6,0.0015817671495943209
172,196.16037247178187,9.077102489971452E-6,0.0015908442520842924
173,196.12380591913862,9.044318290534181E-6,0.0015998885703748266
174,196.0868518494141,9.129945321440798E-6,0.0016090185156962674
175,196.04986382364405,9.080893502648743E-6,0.001618099409198916
176,196.0124709040737,9.089813955378644E-6,0.0016271892231542948
177,195.97533166220342,8.92251044839258E-6,0.0016361117336026873
178,195.93769959998798,8.987231630928609E-6,0.001645098965233616
179,195.9002568319275,8.905523849670483E-6,0.0016540044890832864
180,195.86250661702962,8.95774757348874E-6,0.0016629622366567752
181,195.82491415820482,8.945838645234077E-6,0.0016719080753020091
182,195.7869832177859,8.947435987565106E-6,0.0016808555112895742
183,195.7488830274426,8.86810935893976E-6,0.001689723620648514
184,195.71115297643962,8.794045039053522E-6,0.0016985176656875677
185,195.6737024584203,8.860091869512137E-6,0.0017073777575570797
186,195.6360060485547,8.798327256687689E-6,0.0017161760848137674
187,195.59852992020802,8.915735809527257E-6,0.0017250918206232946
188,195.5600006130692,8.842569400961334E-6,0.0017339343900242559
189,195.52126465402367,8.837822185662955E-6,0.0017427722122099188
190,195.48249477552253,8.89205575644248E-6,0.0017516642679663613
191,195.44391179502915,8.820164328092256E-6,0.0017604844322944536
192,195.40474899533544,8.99758774098873E-6,0.0017694820200354422
193,195.3658458483795,8.867113134360433E-6,0.0017783491331698027
194,195.32746019350284,8.777689202446291E-6,0.001787126822372249
195,195.28946899835535,8.74977951868853E-6,0.0017958766018909376
196,195.25177366759263,8.66511774703655E-6,0.001804541719637974
197,195.21387599149912,8.680812137556922E-6,0.001813222531775531
198,195.17654839708737,8.639433186264648E-6,0.0018218619649617955
199,195.13973196698987,8.63350909891274E-6,0.0018304954740607083
200,195.1029103499523,8.678971594449838E-6,0.0018391744456551582
201,195.06616013103616,8.647177952137406E-6,0.0018478216236072957
202,195.0293130349562,8.730610077543376E-6,0.001856552233684839
203,194.9922109011381,8.657602659055081E-6,0.0018652098363438941
204,194.95542823495512,8.678838463369692E-6,0.0018738886748072639
205,194.91881078605329,8.518404318562206E-6,0.0018824070791258261
206,194.88159592557602,8.489325940943187E-6,0.0018908964050667694
207,194.84457501168552,8.553636042642531E-6,0.0018994500411094119
208,194.80712789991745,8.611631480610879E-6,0.0019080616725900227
209,194.7703081275146,8.552306153360122E-6,0.0019166139787433827
210,194.73388880146737,8.53674203331981E-6,0.0019251507207767025
211,194.69698988742556,8.580643289844058E-6,0.0019337313640665466
212,194.65989255890972,8.566246933653388E-6,0.0019422976110002
213,194.62302299935112,8.618119715395238E-6,0.0019509157307155954
214,194.58471254040518,8.711616245050782E-6,0.0019596273469606462
215,194.54618322083587,8.688173511504496E-6,0.0019683155204721506
216,194.50702705127898,8.72424470777244E-6,0.001977039765179923
217,194.467233392195,8.611364544039428E-6,0.0019856511297239626
218,194.4271982484484,8.666150579369504E-6,0.001994317280303332
219,194.3868847356064,8.660554869857298E-6,0.0020029778351731893
220,194.3462354845607,8.54214978600614E-6,0.0020115199849591956
221,194.3057131547888,8.538602073046944E-6,0.0020200585870322426
222,194.26557195769428,8.62489051645405E-6,0.0020286834775486966
223,194.22532685143108,8.55638816909495E-6,0.0020372398657177914
224,194.18475041256448,8.639438745554788E-6,0.002045879304463346
225,194.14469286753337,8.587343954722815E-6,0.002054466648418069
226,194.10519374538285,8.593371846205203E-6,0.002063060020264274
227,194.06555241589774,8.61987670767401E-6,0.002071679896971948
228,194.02558266503766,8.629085946269663E-6,0.0020803089829182176
229,193.98543670632282,8.522423905140727E-6,0.002088831406823358
230,193.9450415533626,8.573113692718181E-6,0.002097404520516076
231,193.90367897189148,8.674832090835643E-6,0.002106079352606912
232,193.86221429897154,8.645923352759376E-6,0.0021147252759596714
233,193.8205104543724,8.79458084299975E-6,0.0021235198568026713
234,193.77914640462987,8.718633166079419E-6,0.0021322384899687507
235,193.73738274542504,8.792842882962323E-6,0.002141031332851713
236,193.69568018874523,8.785887422520574E-6,0.002149817220274234
237,193.65349706385064,8.839766044655252E-6,0.002158656986318889
238,193.61147682394395,8.937623261407958E-6,0.002167594609580297
239,193.56917835079852,8.990291305119814E-6,0.0021765849008854167
240,193.52683799239327,8.937150513694626E-6,0.002185522051399111
241,193.4838797788812,8.912646985592781E-6,0.002194434698384704
242,193.44134601640837,8.94821691422121E-6,0.0022033829152989255
243,193.3990389831783,9.043776524768792E-6,0.0022124266918236942
244,193.3574788502464,9.268111096864081E-6,0.0022216948029205584
245,193.31555381608027,9.337256577634324E-6,0.002231032059498193
246,193.27336468877763,9.368733323579414E-6,0.0022404007928217722
247,193.2298562084205,9.394856552262166E-6,0.0022497956493740343
248,193.18704788411898,9.432240145115323E-6,0.0022592278895191497
249,193.14404761041354,9.23860082223164E-6,0.0022684664903413814
250,193.10038966811138,9.285336066118293E-6,0.0022777518264075
251,193.05605317849836,9.265569467538916E-6,0.0022870173958750386
252,193.01180454758511,9.377741491928562E-6,0.0022963951373669673
253,192.9679614558664,9.483778884236895E-6,0.002305878916251204
254,192.9244406406982,9.316704966344957E-6,0.002315195621217549
255,192.88057911489219,9.264632305277352E-6,0.0023244602535228264
256,192.83599790128716,9.197369178175391E-6,0.0023336576227010017
257,192.79183834830562,9.262498402327176E-6,0.002342920121103329
258,192.74798182636127,9.118719894176487E-6,0.0023520388409975054
259,192.70360783029224,9.139647113241935E-6,0.0023611784881107474
260,192.65820165105683,9.008212144386362E-6,0.0023701867002551336
261,192.6116336404683,9.06168247463294E-6,0.0023792483827297668
262,192.56531322223222,9.206090834231441E-6,0.0023884544735639983
263,192.51851658734566,9.154028013596582E-6,0.002397608501577595
264,192.4712318022229,9.05747395444715E-6,0.002406665975532042
265,192.42412617158732,9.009266848429892E-6,0.002415675242380472
266,192.37735329645693,9.070267015588195E-6,0.0024247455093960603
267,192.33093609817595,9.163139012940456E-6,0.002433908648409001
268,192.2839987396599,9.010547829664103E-6,0.002442919196238665
269,192.23769092492412,9.128413323021931E-6,0.002452047609561687
270,192.1914255337048,8.971687599598039E-6,0.0024610192971612848
271,192.14443365732234,9.008471782460428E-6,0.002470027768943745
272,192.0971089681276,8.749081253387132E-6,0.002478776850197132
273,192.04873039820555,8.667427866266064E-6,0.0024874442780633984
274,192.0001376898598,8.533871655462916E-6,0.0024959781497188613
275,191.95196797650868,8.630077721791282E-6,0.0025046082274406524
276,191.90342523613506,8.602422918973239E-6,0.0025132106503596256
277,191.85459097657213,8.685428921808294E-6,0.002521896079281434
278,191.80543576583918,8.713039659156792E-6,0.0025306091189405905
279,191.75641465970784,8.650273922221445E-6,0.002539259392862812
280,191.708055000743,8.720738059086523E-6,0.0025479801309218984
281,191.65951070804323,8.590928732480416E-6,0.0025565710596543788
282,191.61126922752075,8.596103391758212E-6,0.002565167163046137
283,191.56328369666713,8.57570340328929E-6,0.0025737428664494265
284,191.5147920619195,8.559063350116965E-6,0.0025823019297995433
285,191.46559428292065,8.624244862587926E-6,0.002590926174662131
286,191.41591564344225,8.65359170642249E-6,0.0025995797663685536
287,191.3654023121271,8.715748574236161E-6,0.00260829551494279
288,191.31442615644718,8.800305461873181E-6,0.002617095820404663
289,191.262911756426,8.813989457332127E-6,0.002625909809861995
290,191.2115381945205,8.873429595228382E-6,0.002634783239457223
291,191.1598582632913,8.89915883190433E-6,0.0026436823982891274
292,191.1083912003393,8.907110758847374E-6,0.0026525895090479747
293,191.05684554589774,8.870688184547739E-6,0.0026614601972325225
294,191.0047877382189,8.959320208038902E-6,0.002670419517440561
295,190.9531437996741,8.939097948794275E-6,0.0026793586153893555
296,190.90109022416976,8.901735141766111E-6,0.0026882603505311215
297,190.84868055995744,8.837625874407607E-6,0.002697097976405529
298,190.79638489061415,8.850585336207487E-6,0.0027059485617417366
299,190.74358868732114,8.739005894842735E-6,0.002714687567636579
300,190.6911637499354,8.80876597089164E-6,0.002723496333607471
301,190.63836109374708,8.930394275203809E-6,0.0027324267278826747
302,190.58599441950327,8.965694104658068E-6,0.0027413924219873327
303,190.53384845773616,9.074074649908254E-6,0.002750466496637241
304,190.4815023125911,9.269812597333118E-6,0.002759736309234574
305,190.42875461474372,9.058719618305105E-6,0.0027687950288528794
306,190.37687858232508,9.164426644333254E-6,0.002777959455497213
307,190.32370030451875,9.073237718180245E-6,0.002787032693215393
308,190.27015898984268,9.135716759089262E-6,0.0027961684099744822
