#t,ESS,tempDiff,temp
0,999.9999999999848,0.0,0.0
1,999.9896827782491,4.14714735001134E-5,4.14714735001134E-5
2,999.9588812599587,4.153938362865034E-5,8.301085712876375E-5
3,999.9084840383564,4.200361918709088E-5,1.2501447631585463E-4
4,999.8411579163678,4.1315557635592595E-5,1.6633003395144722E-4
5,999.755752473264,4.156262567955716E-5,2.0789265963100438E-4
6,999.6504968788986,4.172410105325838E-5,2.496167606842628E-4
7,999.5294440100307,4.1761856876735415E-5,2.9137861756099823E-4
8,999.3894277661722,4.1830914917818045E-5,3.3320953247881625E-4
9,999.2334362707157,4.2250378357918045E-5,3.754599108367343E-4
10,999.0578368660084,4.277793431491495E-5,4.1823784515164925E-4
11,998.8651297892213,4.2869626790825E-5,4.6110747194247424E-4
12,998.6595772679296,4.280180804262763E-5,5.039092799851018E-4
13,998.4410453123484,4.276080893551769E-5,5.466700889206195E-4
14,998.2075775830608,4.2559818525204684E-5,5.892299074458242E-4
15,997.9543248534106,4.2597988893541346E-5,6.318278963393656E-4
16,997.6895748672111,4.218320422835553E-5,6.740111005677212E-4
17,997.4133574267006,4.2083434217064936E-5,7.160945347847861E-4
18,997.1235484824912,4.206359015844774E-5,7.581581249432339E-4
19,996.8218851154143,4.2166071548961304E-5,8.003241964921952E-4
20,996.5110858240448,4.2044769624886986E-5,8.423689661170822E-4
21,996.1874796151608,4.202101807547598E-5,8.843899841925581E-4
22,995.8506569879285,4.173353605315489E-5,9.26123520245713E-4
23,995.4999781886994,4.1723035562153123E-5,9.678465558078662E-4
24,995.1425023299411,4.160434851661489E-5,0.001009450904324481
25,994.7748438505004,4.160094055888451E-5,0.0010510518448833656
26,994.3917771947948,4.176248146352175E-5,0.0010928143263468873
27,993.9878596063603,4.211916661183866E-5,0.001134933492958726
28,993.5769026382231,4.173121534518227E-5,0.0011766647083039084
29,993.150403853748,4.196089904429295E-5,0.0012186256073482013
30,992.7315041182651,4.1188844465201636E-5,0.001259814451813403
31,992.314081775272,4.1066434941764756E-5,0.0013008808867551677
32,991.8880710392492,4.055412052845646E-5,0.0013414350072836242
33,991.4451240014242,4.081765966518899E-5,0.0013822526669488133
34,990.9935988191736,4.130661141733676E-5,0.00142355927836615
35,990.5405393389099,4.107971164396633E-5,0.0014646389900101163
36,990.0840366999074,4.0689238366577964E-5,0.0015053282283766943
37,989.6247574469397,4.081158497655255E-5,0.001546139813353247
38,989.1625471039249,4.078434902245348E-5,0.0015869241623757003
39,988.6903753410191,4.0828417400537286E-5,0.0016277525797762375
40,988.2079948701747,4.06322233506086E-5,0.001668384803126846
41,987.7343378001187,4.018348087234831E-5,0.0017085682839991943
42,987.249469095451,4.0355193517683075E-5,0.0017489234775168775
43,986.7642441870485,3.977863912525565E-5,0.001788702116642133
44,986.2728614992968,3.961283457353021E-5,0.0018283149512156632
45,985.7808839971,3.928055521937421E-5,0.0018675955064350375
46,985.2840985424025,3.925329903596473E-5,0.0019068488054710022
47,984.7874883730285,3.905878518419058E-5,0.001945907590655193
48,984.2863748598057,3.933440196547783E-5,0.0019852419926206706
49,983.7819029025617,3.919655172092785E-5,0.002024438544341598
50,983.2744714229427,3.919282256936045E-5,0.0020636313669109584
51,982.7640558261702,3.902134165758864E-5,0.002102652708568547
52,982.2449474605979,3.8633314525222376E-5,0.0021412860230937696
53,981.7198482275656,3.848660681246055E-5,0.00217977262990623
54,981.1855014132275,3.834494162432972E-5,0.0022181175715305598
55,980.6508963655423,3.826266102127108E-5,0.0022563802325518308
56,980.117527818242,3.7777849181980736E-5,0.0022941580817338117
57,979.5741165519836,3.804069884850631E-5,0.002332198780582318
58,979.0359555064007,3.766099414631258E-5,0.002369859774728631
59,978.4938960377466,3.817183101706383E-5,0.0024080316057456946
60,977.9437238639593,3.881482849013223E-5,0.002446846434235827
61,977.3968637668765,3.895992494098423E-5,0.0024858063591768112
62,976.8403254857452,3.90223975269621E-5,0.0025248287567037732
63,976.2904176777894,3.8609200396678183E-5,0.0025634379571004514
64,975.7343774824064,3.879792555762526E-5,0.002602235882658077
65,975.1728979317809,3.854157851635547E-5,0.0026407774611744324
66,974.6112721198341,3.825366505693804E-5,0.0026790311262313705
67,974.0619828656284,3.8344908820779976E-5,0.0027173760350521505
68,973.5217789755743,3.7645232687668134E-5,0.0027550212677398185
69,972.9816327187045,3.7850596475282556E-5,0.002792871864215101
70,972.455621268604,3.7910225432905E-5,0.002830782089648006
71,971.9217726677664,3.845608580717989E-5,0.002869238175455186
72,971.380432757611,3.829326342093387E-5,0.00290753143887612
73,970.8302332900413,3.8868593719329886E-5,0.00294640003259545
74,970.271136417445,3.8709341117089624E-5,0.0029851093737125393
75,969.7104471445956,3.8702227964109974E-5,0.0030238116016766494
76,969.1414055248272,3.853359848334897E-5,0.0030623452001599986
77,968.5604245739976,3.892263230732327E-5,0.0031012678324673216
78,967.9630134463978,3.8981346520438827E-5,0.0031402491789877603
79,967.3527918033651,3.934329545036364E-5,0.003179592474438124
80,966.7384305776952,3.883199150284517E-5,0.003218424465940969
81,966.1151570506627,3.905377726314696E-5,0.003257478243204116
82,965.5187204778715,3.843340753650539E-5,0.0032959116507406214
83,964.900280494013,3.9189891364619946E-5,0.0033351015421052414
84,964.2708969001718,3.892738464347176E-5,0.003374028926748713
85,963.6346846139686,3.9043105707700194E-5,0.0034130720324564135
86,962.9957714190535,3.932320299278322E-5,0.0034523952354491966
87,962.3784636258556,3.8519219892728566E-5,0.003490914455341925
88,961.7778243617076,3.820446616055436E-5,0.0035291189215024793
89,961.1569268447414,3.8176297099020036E-5,0.003567295218601499
90,960.515046544519,3.851568270326181E-5,0.003605810901304761
91,959.8848977850673,3.8857293472746705E-5,0.0036446681947775077
92,959.2624165839051,3.8762465510990486E-5,0.003683430660288498
93,958.6478836201574,3.807383678656119E-5,0.003721504497075059
94,958.028475450249,3.8647609369179924E-5,0.003760152106444239
95,957.4197318688774,3.81089451068677E-5,0.0037982610515511065
96,956.8006385524269,3.833649835029501E-5,0.0038365975499014015
97,956.1891029460651,3.802664214732854E-5,0.00387462419204873
98,955.5685650201077,3.8379776480352326E-5,0.003913003968529082
99,954.9430198778248,3.82590927061074E-5,0.00395126306123519
100,954.3201205526192,3.8513972151967185E-5,0.003989777033387157
101,953.6829718102281,3.913623978937671E-5,0.004028913273176534
102,953.0528297994322,3.916921149714699E-5,0.004068082484673681
103,952.4262605713053,3.9259895109971676E-5,0.004107342379783653
104,951.799213716723,3.901613258616925E-5,0.004146358512369822
105,951.1623922776886,3.901250064152673E-5,0.004185371013011349
106,950.5209687216378,3.907792012015924E-5,0.004224448933131508
107,949.889036914673,3.92763048766471E-5,0.004263725238008155
108,949.2538274042621,3.944339652235929E-5,0.0043031686345305145
109,948.6127438871174,3.92576595828859E-5,0.0043424262941134
110,947.9544093194969,3.90345043322096E-5,0.00438146079844561
111,947.2956051280289,3.888171737688739E-5,0.004420342515822497
112,946.6431330209156,3.845799444575514E-5,0.004458800510268253
113,945.9930186413653,3.829046787687928E-5,0.004497090978145132
114,945.3373131725295,3.860366973155664E-5,0.004535694647876689
115,944.6819365878034,3.890296838398E-5,0.004574597616260669
116,944.035775648203,3.869379188744189E-5,0.004613291408148111
117,943.3706351565824,3.883929537241469E-5,0.004652130703520526
118,942.6877387462214,3.868431584313493E-5,0.004690815019363661
119,941.9997802767772,3.833992715271883E-5,0.00472915494651638
120,941.3059332991814,3.879874878277828E-5,0.004767953695299159
121,940.6137326542084,3.862893420484394E-5,0.004806582629504003
122,939.9057564715055,3.897661555202841E-5,0.004845559245056031
123,939.1749894330272,3.937109904549627E-5,0.004884930344101528
124,938.4358214693356,3.94089121189383E-5,0.004924339256220466
125,937.6888930644245,3.922055258921528E-5,0.004963559808809681
126,936.9482635058996,3.928775056168788E-5,0.005002847559371369
127,936.2076039747005,3.9357259848061934E-5,0.005042204819219431
128,935.452727093813,3.915756551051008E-5,0.0050813623847299405
129,934.6960056717339,3.917226170732834E-5,0.005120534646437269
130,933.9537341759938,3.9133941368003825E-5,0.005159668587805272
131,933.1995606824751,3.90687104119794E-5,0.005198737298217251
132,932.4321702234885,3.928719612210168E-5,0.005238024494339353
133,931.6960458761175,3.853221592399981E-5,0.005276556710263353
134,930.9303270293498,3.9214795537570194E-5,0.005315771505800923
135,930.1472204055773,3.928787341474966E-5,0.005355059379215673
136,929.361378466625,3.9002320076642474E-5,0.005394061699292315
137,928.5954171228371,3.8894305444498996E-5,0.005432956004736814
138,927.840866004609,3.8710583738099484E-5,0.005471666588474914
139,927.0744948599342,3.8846464950515054E-5,0.005510513053425429
140,926.2859109166393,3.8966106357339046E-5,0.005549479159782768
141,925.4748442871272,3.938354653646044E-5,0.005588862706319229
142,924.6764959666443,3.917633173053203E-5,0.005628039038049761
143,923.8843474750628,3.930515034476676E-5,0.005667344188394528
144,923.0885720944557,3.939534369056642E-5,0.0057067395320850945
145,922.2923565447445,3.984613628262963E-5,0.005746585668367724
146,921.5111193297032,3.9478222398877286E-5,0.005786063890766601
147,920.6902107814265,3.9901845501499186E-5,0.0058259657362681
148,919.8726170489041,3.933625500332754E-5,0.005865301991271428
149,919.0438054821085,3.948061545462326E-5,0.005904782606726051
150,918.2080032892444,3.949672747826223E-5,0.005944279334204314
151,917.361559099426,3.9649590342062404E-5,0.005983928924546376
152,916.5131791851168,3.9587321770322835E-5,0.006023516246316699
153,915.6602218761827,3.996736105013723E-5,0.006063483607366836
154,914.850994087474,3.995815110404948E-5,0.006103441758470885
155,914.0574682080382,3.980013001806432E-5,0.00614324188848895
156,913.2642475167731,3.998550042537336E-5,0.006183227388914323
157,912.4826035895719,3.957930459908288E-5,0.0062228066935134056
158,911.7296564746018,3.915818420571036E-5,0.006261964877719116
159,910.9615643339448,3.946714532529506E-5,0.006301432023044411
160,910.1781265508334,3.9330116402774394E-5,0.006340762139447185
161,909.3996873385203,3.949812841470005E-5,0.006380260267861885
162,908.6593763809968,4.007777946327114E-5,0.006420338047325156
163,907.9092081001811,4.0032536833740505E-5,0.006460370584158897
164,907.1483046563317,4.021570754404009E-5,0.006500586291702937
165,906.3905770752691,4.0609656830875135E-5,0.006541195948533812
166,905.647842792083,4.07976681741989E-5,0.006581993616708011
167,904.9205872493249,4.047305149375074E-5,0.006622466668201762
168,904.1808778233112,4.0261480096839155E-5,0.0066627281482986005
169,903.4340783324395,3.996895333867692E-5,0.006702697101637277
170,902.7166677065288,3.983254772426976E-5,0.006742529649361547
171,901.9945043073282,3.996370529067805E-5,0.006782493354652225
172,901.2659488428528,3.992700121083387E-5,0.006822420355863059
173,900.5420799148168,3.9347713024801394E-5,0.00686176806888786
174,899.798413061979,3.914003418800266E-5,0.006900908103075862
175,899.0407129743082,3.929690645378078E-5,0.006940205009529642
176,898.2755940357936,3.9108483799881144E-5,0.006979313493329523
177,897.4925093837452,3.938099513725443E-5,0.007018694488466777
178,896.7121613841849,3.9296438654436184E-5,0.007057990927121213
179,895.932123356249,3.956175443816173E-5,0.007097552681559375
180,895.1554500737111,3.972733601909512E-5,0.00713728001757847
181,894.366978139988,3.948588002117722E-5,0.007176765897599647
182,893.5556170706733,3.934083751168179E-5,0.007216106735111329
183,892.723185057786,3.9404219278936945E-5,0.007255510954390266
184,891.8909712365271,3.934970972672754E-5,0.007294860664116993
185,891.0699300284173,3.945019946225949E-5,0.0073343108635792525
186,890.2548399073942,3.968858640292406E-5,0.0073739994499821765
187,889.459761836165,3.971420706237145E-5,0.007413713657044548
188,888.6511934202466,4.009650616988078E-5,0.007453810163214429
189,887.8643462012712,4.008885190868469E-5,0.007493899015123114
190,887.0766879326309,4.008013035965058E-5,0.007533979145482764
191,886.2790337437741,4.033085059826594E-5,0.007574309996081031
192,885.4668482239032,4.0139224948646356E-5,0.007614449221029677
193,884.6354597126818,4.004828292928695E-5,0.007654497503958964
194,883.8021431929092,3.961528485072952E-5,0.007694112788809693
195,882.9986471517315,3.975335074660636E-5,0.0077338661395562995
196,882.1590050834968,3.971797180197012E-5,0.00777358411135827
197,881.3013110427255,3.9636180079837724E-5,0.007813220291438107
198,880.4646330416683,3.953286194989196E-5,0.007852753153387999
199,879.6389359152629,3.956705332532054E-5,0.00789232020671332
200,878.7938988484156,3.9557493060217445E-5,0.007931877699773536
201,877.9447147636412,3.992414263886912E-5,0.007971801842412406
202,877.115254356106,3.9481123987776924E-5,0.008011282966400184
203,876.294805566048,3.956875071196819E-5,0.008050851717112152
204,875.4881058590273,3.9349215477613914E-5,0.008090200932589766
205,874.6482896181501,3.962674262669009E-5,0.008129827675216457
206,873.8015678054177,3.998225842855494E-5,0.008169809933645012
207,872.9865181791754,3.99887270737749E-5,0.008209798660718788
208,872.223787747518,3.977712441147569E-5,0.008249575785130263
209,871.4286431924453,3.990786971591813E-5,0.008289483654846181
210,870.6498134501888,3.9908202845046076E-5,0.008329391857691227
211,869.8367068970698,3.9913258122790715E-5,0.008369305115814019
212,869.0284569254036,3.9756599434807676E-5,0.008409061715248826
213,868.2397138056285,3.928171905766218E-5,0.008448343434306489
214,867.4589959928985,3.939320256968365E-5,0.008487736636876173
215,866.7000559622759,3.906917101384465E-5,0.008526805807890017
216,865.9187239427954,3.944261825501788E-5,0.008566248426145034
217,865.13516324749,3.971156968247532E-5,0.00860595999582751
218,864.353822276764,3.951280829266595E-5,0.008645472804120176
219,863.5766426797843,3.853344619583785E-5,0.008684006250316014
220,862.7983315988424,3.85134312971706E-5,0.008722519681613184
221,862.035010816372,3.851780476790976E-5,0.008761037486381094
222,861.2685698039573,3.857270929635076E-5,0.008799610195677446
223,860.5153467269475,3.8489184723616845E-5,0.008838099380401063
224,859.7824647553427,3.871415417815086E-5,0.008876813534579215
225,859.0438385407665,3.83913366457702E-5,0.008915204871224986
226,858.289687044426,3.835440776356427E-5,0.00895355927898855
227,857.5318556556398,3.865855703205363E-5,0.008992217836020604
228,856.7833080442505,3.8607443633402E-5,0.009030825279654006
229,856.0413022887005,3.826364925189432E-5,0.0090690889289059
230,855.2861635309205,3.806136790483202E-5,0.009107150296810732
231,854.5220837070572,3.83366633735422E-5,0.009145486960184274
232,853.7595838312797,3.8198046569871605E-5,0.009183685006754145
233,853.0117813263525,3.832290637943217E-5,0.009222007913133577
234,852.24789496275,3.825067777307316E-5,0.00926025859090665
235,851.4767581617175,3.8512583645892954E-5,0.009298771174552543
236,850.704175025435,3.856128335812425E-5,0.009337332457910668
237,849.90621188047,3.8932285606695804E-5,0.009376264743517364
238,849.130895802144,3.862664001516501E-5,0.00941489138353253
239,848.334287057293,3.883887502842737E-5,0.009453730258560958
240,847.5285073208809,3.972642160459469E-5,0.009493456680165553
241,846.7317972607412,3.9865223772783715E-5,0.009533321903938336
242,845.9335546627965,3.996430077117637E-5,0.009573286204709514
243,845.1437299958798,3.9471355539096396E-5,0.00961275756024861
244,844.3177706796603,3.973164558317208E-5,0.00965248920583178
245,843.4921121493902,3.9522791769177625E-5,0.009692011997600959
246,842.6649152804886,4.000690449406021E-5,0.009732018902095019
247,841.8342769109638,4.047671317081535E-5,0.009772495615265834
248,841.0182496829926,4.0337279731592026E-5,0.009812832894997426
249,840.1624594984223,4.0462604913193416E-5,0.00985329549991062
250,839.3062407234735,4.048971106376669E-5,0.009893785210974386
251,838.4663758593719,4.060476133018965E-5,0.009934389972304575
252,837.61971885077,4.0202164971086886E-5,0.009974592137275662
253,836.8106862500932,4.000861858951051E-5,0.010014600755865173
254,836.0574336913837,3.933200747018392E-5,0.010053932763335357
255,835.3059394291878,3.93430696822433E-5,0.0100932758330176
256,834.5507481728602,3.93063516131445E-5,0.010132582184630744
257,833.8048798027596,3.9112788439378395E-5,0.010171694973070123
258,833.0884111674493,3.888164975836879E-5,0.010210576622828491
259,832.3611041748536,3.9119220605710114E-5,0.0102496958434342
260,831.6253162250698,3.958005021263563E-5,0.010289275893646836
261,830.8986434186115,3.963680077317701E-5,0.010328912694420014
262,830.1602310605091,3.9590950602798645E-5,0.010368503645022812
263,829.4204998270665,3.991895319601052E-5,0.010408422598218822
264,828.683894071128,4.010161758357059E-5,0.010448524215802392
265,827.9960767948808,3.987510704927347E-5,0.010488399322851666
266,827.3406276242911,3.9159617753763754E-5,0.01052755894060543
267,826.6688339628647,3.924211303495419E-5,0.010566801053640384
268,825.9997598346238,3.9508742312612266E-5,0.010606309795952997
269,825.3479200558007,3.932116717582701E-5,0.010645630963128825
270,824.7091547682082,3.91214549530986E-5,0.010684752418081924
271,824.0881992072204,3.9001603164628345E-5,0.010723754021246552
272,823.4516242566714,3.8735522812557245E-5,0.010762489544059109
273,822.8377365723609,3.8552736779491326E-5,0.0108010422808386
274,822.2255607929585,3.8766467585950666E-5,0.01083980874842455
275,821.6079419609372,3.878470431757516E-5,0.010878593452742124
276,820.9940965257163,3.920888875095165E-5,0.010917802341493076
277,820.3673017953163,3.9785828990980435E-5,0.010957588170484056
278,819.7654094055692,3.93576898823778E-5,0.010996945860366434
279,819.152560629597,3.9223823022760214E-5,0.011036169683389194
280,818.509526611441,3.983915781099765E-5,0.011076008841200193
281,817.8590018792933,3.980176871488357E-5,0.011115810609915077
282,817.174901997883,3.9967209753146945E-5,0.011155777819668224
283,816.4976608916712,4.018080007147191E-5,0.011195958619739696
284,815.7797421874312,4.0345573907273295E-5,0.011236304193646969
285,815.0496281302758,4.038110484382547E-5,0.011276685298490794
286,814.3081718637649,3.9859959139153746E-5,0.011316545257629948
287,813.5606094356391,4.0261114338261786E-5,0.01135680637196821
288,812.8002488732668,4.085442922302504E-5,0.011397660801191235
289,812.0061636322565,4.141545244846006E-5,0.011439076253639695
290,811.2051447897638,4.169490366901699E-5,0.011480771157308712
291,810.4129003347134,4.164297380913377E-5,0.011522414131117846
292,809.5866252443085,4.186636273461179E-5,0.011564280493852457
293,808.7943723583322,4.1638913266936315E-5,0.011605919407119393
294,808.0069822395042,4.194668605664624E-5,0.01164786609317604
295,807.2480804777629,4.205789093183099E-5,0.011689923984107871
296,806.4886697166703,4.24066865816284E-5,0.0117323306706895
297,805.7133053508678,4.272975656375484E-5,0.011775060427253254
298,804.9739069755555,4.228635183457338E-5,0.011817346779087827
299,804.2125832288914,4.22151186094317E-5,0.011859561897697258
300,803.431615693563,4.2064057295446324E-5,0.011901625954992704
301,802.6504623663018,4.182772907418102E-5,0.011943453684066884
302,801.8887718847798,4.161714814990653E-5,0.01198507083221679
303,801.1285736106475,4.192601526246346E-5,0.012026996847479255
304,800.4168317715702,4.1246878697624324E-5,0.01206824372617688
305,799.7263981233331,4.144158684919328E-5,0.012109685313026074
306,799.0336261032247,4.1957031678134194E-5,0.012151642344704209
307,798.3186849252698,4.2033219385840646E-5,0.01219367556409005
308,797.6083791544478,4.2316208520092705E-5,0.012235991772610142
309,796.9281437796504,4.243094345803681E-5,0.01227842271606818
310,796.2405934309793,4.240652796597295E-5,0.012320829244034152
311,795.5278228770909,4.241882633346247E-5,0.012363248070367615
312,794.8122252675906,4.251140094931013E-5,0.012405759471316925
313,794.1011996000356,4.233644900121479E-5,0.01244809592031814
