#t,ESS,tempDiff,temp
0,200.00000000000065,0.0,0.0
1,199.99980030138758,6.332835947290644E-6,6.332835947290644E-6
2,199.99921250522166,6.3015714880808635E-6,1.2634407435371507E-5
3,199.9982540247615,6.2234239600325575E-6,1.8857831395404066E-5
4,199.99693083005238,6.244304656776585E-6,2.510213605218065E-5
5,199.9952284285693,6.261380052489222E-6,3.136351610466987E-5
6,199.9931597895605,6.278533901145505E-6,3.7642050005815376E-5
7,199.99073703502282,6.205914281616864E-6,4.384796428743224E-5
8,199.98791512830056,6.202279720903235E-6,5.005024400833548E-5
9,199.98467943582122,6.2431912378204845E-6,5.629343524615596E-5
10,199.98111176645847,6.238296198674971E-6,6.253173144483093E-5
11,199.97715588069332,6.190250321065243E-6,6.872198176589618E-5
12,199.97281041904364,6.272894293703794E-6,7.499487605959998E-5
13,199.96820830406702,6.2525687077057954E-6,8.124744476730578E-5
14,199.96309907660356,6.335863912523011E-6,8.758330867982879E-5
15,199.9576254788688,6.328824731146416E-6,9.39121334109752E-5
16,199.95184943120887,6.318585314612351E-6,1.0023071872558754E-4
17,199.94574451224324,6.212582934363476E-6,1.0644330165995102E-4
18,199.93922333499702,6.248950248812852E-6,1.1269225190876387E-4
19,199.93228011273558,6.27895605192824E-6,1.189712079606921E-4
20,199.92479235734808,6.416905343464593E-6,1.253881133041567E-4
21,199.91688855075765,6.404734921439939E-6,1.3179284822559666E-4
22,199.90884578722253,6.3245128174433815E-6,1.3811736104304005E-4
23,199.90052691539248,6.364003776037172E-6,1.4448136481907722E-4
24,199.89206689623737,6.336554155971601E-6,1.5081791897504884E-4
25,199.88324662684752,6.4047619800097475E-6,1.5722268095505858E-4
26,199.87415818183254,6.3808100367541545E-6,1.6360349099181273E-4
27,199.86456090805729,6.5210183225752515E-6,1.7012450931438799E-4
28,199.8546743192187,6.6023291442781835E-6,1.7672683845866617E-4
29,199.84449554658366,6.555483781692895E-6,1.8328232224035907E-4
30,199.83402457624928,6.53359654986082E-6,1.8981591879021987E-4
31,199.82303741877033,6.583123755327319E-6,1.963990425455472E-4
32,199.81159082335017,6.491513435839882E-6,2.028905559813871E-4
33,199.79981315207783,6.447624240198319E-6,2.0933818022158542E-4
34,199.78784087312079,6.365231245437185E-6,2.1570341146702262E-4
35,199.775429485449,6.435014560759517E-6,2.2213842602778215E-4
36,199.7627652870574,6.481785321895612E-6,2.2862021134967777E-4
37,199.74961995665026,6.477942397720871E-6,2.3509815374739865E-4
38,199.7362999838907,6.452684575755563E-6,2.415508383231542E-4
39,199.72279496576408,6.395378632426592E-6,2.479462169555808E-4
40,199.70849002673356,6.556980245346438E-6,2.5450319720092724E-4
41,199.69397513101296,6.458993312534542E-6,2.609621905134618E-4
42,199.6791159785847,6.472853002405793E-6,2.6743504351586756E-4
43,199.6636387129799,6.5685613962747845E-6,2.7400360491214233E-4
44,199.64801330905325,6.539247090971699E-6,2.8054285200311405E-4
45,199.63203448130707,6.617783233829281E-6,2.8716063523694335E-4
46,199.61583214088614,6.61812188416406E-6,2.937787571211074E-4
47,199.59923001573713,6.635086822474778E-6,3.004138439435822E-4
48,199.58218120353823,6.596031115456877E-6,3.070098750590391E-4
49,199.5649006278693,6.581730943112632E-6,3.135916060021517E-4
50,199.5477525804309,6.415906140901413E-6,3.2000751214305315E-4
51,199.52979045858856,6.481752266713307E-6,3.2648926440976645E-4
52,199.5115478589173,6.473344587949963E-6,3.329626089977164E-4
53,199.49374798805312,6.482246831088206E-6,3.3944485582880463E-4
54,199.47553316951985,6.53667538731692E-6,3.459815312161215E-4
55,199.45707759643872,6.563367715751187E-6,3.525448989318727E-4
56,199.4384890911855,6.510596214639974E-6,3.590554951465127E-4
57,199.4196523682705,6.496729676111564E-6,3.655522248226243E-4
58,199.40041950426354,6.561795275974952E-6,3.721140200985992E-4
59,199.38039445576047,6.549092792090892E-6,3.786631128906901E-4
60,199.3600833360407,6.654882993844925E-6,3.8531799588453503E-4
61,199.33949579576662,6.739424331274986E-6,3.9205742021581003E-4
62,199.31862610582712,6.695128763759136E-6,3.9875254897956915E-4
63,199.29754334474256,6.623765657369645E-6,4.053763146369388E-4
64,199.2772672348492,6.573328363050446E-6,4.1194964299998924E-4
65,199.25627778824176,6.667601357686521E-6,4.186172443576758E-4
66,199.23485618601393,6.6447501405006865E-6,4.252619944981765E-4
67,199.21250980408306,6.785523014909016E-6,4.320475175130855E-4
68,199.1898690951407,6.919222798626132E-6,4.3896674031171167E-4
69,199.16739011290852,6.940953153350896E-6,4.4590769346506255E-4
70,199.1451298114912,6.922668656370826E-6,4.5283036212143336E-4
71,199.1218624836484,6.98304037755461E-6,4.5981340249898797E-4
72,199.0982315146248,7.085162313939116E-6,4.668985648129271E-4
73,199.07406713341663,7.074654754682459E-6,4.739732195676096E-4
74,199.05007435230723,7.059705117035191E-6,4.8103292468464477E-4
75,199.0254676608282,7.077862725535747E-6,4.881107874101805E-4
76,199.00056661273285,7.090472929440644E-6,4.952012603396212E-4
77,198.9756200698651,7.01435504955335E-6,5.022156153891745E-4
78,198.9502598542141,6.989437481019062E-6,5.092050528701936E-4
79,198.92563195558932,6.821582562959092E-6,5.160266354331527E-4
80,198.90133791750407,6.684735931949027E-6,5.227113713651017E-4
81,198.8760602836387,6.641757066274691E-6,5.293531284313764E-4
82,198.84985447850335,6.796713256173468E-6,5.361498416875499E-4
83,198.82288655297086,6.815696197412503E-6,5.429655378849624E-4
84,198.79544253387147,6.770458843756374E-6,5.497359967287189E-4
85,198.76801561405617,6.752210578053051E-6,5.56488207306772E-4
86,198.73999671108962,6.797847288124276E-6,5.632860545948963E-4
87,198.71179017190974,6.713268151657787E-6,5.69999322746554E-4
88,198.68376723839452,6.637423212633635E-6,5.766367459591877E-4
89,198.65589500955215,6.556960721200342E-6,5.83193706680388E-4
90,198.6278300833128,6.533123384052965E-6,5.89726830064441E-4
91,198.59966943375315,6.45731918514875E-6,5.961841492495897E-4
92,198.57061950291148,6.4200883052835925E-6,6.026042375548733E-4
93,198.54114320028188,6.380680466986404E-6,6.089849180218597E-4
94,198.511439001761,6.443371657611571E-6,6.154282896794713E-4
95,198.48107920523557,6.456662713883E-6,6.218849523933542E-4
96,198.45024725467002,6.461391324283361E-6,6.283463437176376E-4
97,198.42000594942456,6.326170479496531E-6,6.346725141971341E-4
98,198.38951570720405,6.312852162537428E-6,6.409853663596715E-4
99,198.35946809597039,6.30402821968564E-6,6.472893945793571E-4
100,198.32872353690675,6.3724053925830046E-6,6.536617999719402E-4
101,198.29789862212922,6.363401684467787E-6,6.60025201656408E-4
102,198.26642322455993,6.4255419444126815E-6,6.664507436008206E-4
103,198.2346236080821,6.516698738471871E-6,6.729674423392925E-4
104,198.20320683794537,6.4992184896746685E-6,6.794666608289672E-4
105,198.17191882501928,6.462100006567722E-6,6.859287608355349E-4
106,198.1400377501863,6.478869736399827E-6,6.924076305719348E-4
107,198.10816490276642,6.590564237110969E-6,6.989981948090457E-4
108,198.07610505295384,6.49025780088154E-6,7.054884526099272E-4
109,198.04316391693155,6.588609931735216E-6,7.120770625416624E-4
110,198.0101189706573,6.610926990492882E-6,7.186879895321553E-4
111,197.97738596367697,6.599011521787577E-6,7.252870010539429E-4
112,197.9445408972496,6.570480953070968E-6,7.318574820070139E-4
113,197.9112908516501,6.502099665935106E-6,7.38359581672949E-4
114,197.87865946690377,6.463037752439453E-6,7.448226194253885E-4
115,197.84512454228837,6.5113070504623595E-6,7.513339264758509E-4
116,197.81083753460572,6.581880014688455E-6,7.579158064905393E-4
117,197.7761817009203,6.557838807247339E-6,7.644736452977867E-4
118,197.74144572119909,6.529411675527869E-6,7.710030569733146E-4
119,197.70719150062828,6.4733703166925105E-6,7.77476427290007E-4
120,197.67312837077012,6.429542934887176E-6,7.839059702248942E-4
121,197.6380049359243,6.410348110186433E-6,7.903163183350806E-4
122,197.60319144410053,6.455834517645884E-6,7.967721528527265E-4
123,197.56845322874554,6.477695508456337E-6,8.032498483611829E-4
124,197.53316228869218,6.474239058305762E-6,8.097240874194886E-4
125,197.49748446463911,6.566573461890671E-6,8.162906608813793E-4
126,197.46161742291568,6.659574194381209E-6,8.229502350757604E-4
127,197.4251022394721,6.698977729920588E-6,8.29649212805681E-4
128,197.38939267458215,6.622092251441556E-6,8.362713050571226E-4
129,197.35256523175383,6.6723547232487575E-6,8.429436597803713E-4
130,197.31476714755664,6.814729471207463E-6,8.497583892515787E-4
131,197.27751479780446,6.758411331167889E-6,8.565168005827466E-4
132,197.24050434565243,6.7039378812179915E-6,8.632207384639645E-4
133,197.2028265261603,6.765003735008302E-6,8.699857421989728E-4
134,197.16501090781068,6.6905145861938595E-6,8.766762567851667E-4
135,197.12635349116206,6.723277244402071E-6,8.833995340295687E-4
136,197.08731350965493,6.745736833199439E-6,8.901452708627682E-4
137,197.04844322694117,6.7220888298830424E-6,8.968673596926512E-4
138,197.0093230533913,6.801725271039538E-6,9.036690849636908E-4
139,196.97109685010648,6.750879087271771E-6,9.104199640509625E-4
140,196.93323066220123,6.7526183811778685E-6,9.171725824321404E-4
141,196.89569513069148,6.680677397095338E-6,9.238532598292358E-4
142,196.85725928341802,6.732236268818038E-6,9.305854960980539E-4
143,196.8186963106286,6.692530988096808E-6,9.372780270861506E-4
144,196.77940518689763,6.647370055676535E-6,9.439253971418272E-4
145,196.73984658407107,6.556746239115768E-6,9.50482143380943E-4
146,196.70066009232698,6.494704194933523E-6,9.569768475758765E-4
147,196.66089499846555,6.5386057395771455E-6,9.635154533154536E-4
148,196.62053029918664,6.525338429117456E-6,9.700407917445711E-4
149,196.580112266196,6.480055469149894E-6,9.76520847213721E-4
150,196.54000474065987,6.4681786928478905E-6,9.829890259065689E-4
151,196.50086491284577,6.410242595800412E-6,9.893992685023692E-4
152,196.45986227418905,6.451155666425714E-6,9.958504241687949E-4
153,196.41881209025846,6.52109913379763E-6,0.0010023715233025924
154,196.37713231990702,6.444535813386583E-6,0.0010088160591159789
155,196.33538340123047,6.504658044409623E-6,0.0010153207171603885
156,196.29249909164724,6.478545504515081E-6,0.0010217992626649036
157,196.24953083312647,6.415529549246226E-6,0.00102821479221415
158,196.207082566724,6.37976931239199E-6,0.0010345945615265419
159,196.1649213626791,6.382692558897637E-6,0.0010409772540854395
160,196.12257410214272,6.361397702410012E-6,0.0010473386517878495
161,196.07963426689759,6.382188647712732E-6,0.0010537208404355623
162,196.03655356971944,6.328278818499472E-6,0.0010600491192540617
163,195.99334393772074,6.345174687953346E-6,0.001066394293942015
164,195.94997074707754,6.3656192821457015E-6,0.0010727599132241607
165,195.9066749496731,6.316681327822039E-6,0.0010790765945519827
166,195.86251476043037,6.430081434841952E-6,0.0010855066759868246
167,195.81774795179882,6.476953637316003E-6,0.0010919836296241407
168,195.77361683302854,6.451889873351746E-6,0.0010984355194974924
169,195.7290676861942,6.393531000389229E-6,0.0011048290504978816
170,195.68459985190492,6.322306686513596E-6,0.0011111513571843952
171,195.64010626639208,6.3076945449075E-6,0.0011174590517293028
172,195.5959526688548,6.223036437806056E-6,0.0011236820881671088
173,195.55092868603663,6.235912255188193E-6,0.001129918000422297
174,195.50712788648423,6.131916488720744E-6,0.0011360499169110177
175,195.4614260160786,6.253867366003238E-6,0.0011423037842770208
176,195.41547778234428,6.216618074297832E-6,0.0011485204023513186
177,195.36929376834559,6.347338854725952E-6,0.0011548677412060446
178,195.32378217980744,6.30383940353102E-6,0.0011611715806095757
179,195.27864265038963,6.23597748708367E-6,0.0011674075580966595
180,195.23385608256197,6.291265641519001E-6,0.0011736988237381785
181,195.1898184631584,6.2333968629348315E-6,0.0011799322206011134
182,195.14592790533365,6.2112407836328845E-6,0.0011861434613847463
183,195.10202597522897,6.270468073524314E-6,0.0011924139294582706
184,195.05764090702644,6.308649811541915E-6,0.0011987225792698124
185,195.0137469587803,6.2178056894100145E-6,0.0012049403849592223
186,194.9705417281871,6.183487351107337E-6,0.0012111238723103296
187,194.9261929776569,6.28053453566835E-6,0.001217404406845998
188,194.88112144284335,6.313819585559609E-6,0.0012237182264315575
189,194.83625210349408,6.238464505297009E-6,0.0012299566909368545
190,194.7912531407614,6.15879368297238E-6,0.001236115484619827
191,194.7464421691379,6.216931191558922E-6,0.0012423324158113858
192,194.70013535760566,6.242075919009084E-6,0.0012485744917303948
193,194.65357731852862,6.182920478979273E-6,0.001254757412209374
194,194.60666659715858,6.312882659789217E-6,0.0012610702948691634
195,194.5595132391303,6.247516324018543E-6,0.0012673178111931819
196,194.5122029495856,6.170584139172381E-6,0.0012734883953323542
197,194.46368875657998,6.255872010916944E-6,0.0012797442673432712
198,194.41638055688304,6.186182964439069E-6,0.0012859304503077102
199,194.36869227963462,6.121156494631983E-6,0.001292051606802342
200,194.32299250194782,6.08068345971432E-6,0.0012981322902620564
201,194.27710842086634,6.088079893629679E-6,0.001304220370155686
202,194.23105428804146,6.120875813126944E-6,0.001310341245968813
203,194.18576660705838,6.127486082169887E-6,0.0013164687320509829
204,194.1407015386114,6.133885766514019E-6,0.0013226026178174968
205,194.09649315687554,6.138756373270081E-6,0.001328741374190767
206,194.05103461998118,6.294167987322144E-6,0.0013350355421780891
207,194.00541313482788,6.307961949406559E-6,0.0013413435041274957
208,193.9589724113153,6.345837002659232E-6,0.001347689341130155
209,193.9132380364078,6.261372767566051E-6,0.001353950713897721
210,193.86711306200937,6.209559898793705E-6,0.0013601602737965146
211,193.82123517388703,6.251767368097574E-6,0.001366412041164612
212,193.7745117878159,6.2636607723331205E-6,0.0013726757019369453
213,193.7272986499772,6.2000792073728535E-6,0.0013788757811443182
214,193.67917880629076,6.307303167021673E-6,0.00138518308431134
215,193.6309034572974,6.269766838788566E-6,0.0013914528511501285
216,193.5835373208374,6.242360354744678E-6,0.001397695211504873
217,193.53613744834658,6.290776362242324E-6,0.0014039859878671153
218,193.4888849618845,6.255039764108341E-6,0.0014102410276312237
219,193.44134213150775,6.232496950029237E-6,0.001416473524581253
220,193.3951470638165,6.128766703794112E-6,0.001422602291285047
221,193.3494836011941,6.172614936413103E-6,0.0014287749062214601
222,193.30393299042984,6.1858385786785235E-6,0.0014349607448001385
223,193.259964950329,6.182378160703759E-6,0.0014411431229608422
224,193.21773478510352,6.137832942606626E-6,0.0014472809559034489
225,193.17416628493777,6.2799491109731115E-6,0.001453560905014422
226,193.13118514716518,6.317172977368195E-6,0.00145987807799179
227,193.08756147416028,6.403020573403252E-6,0.0014662810985651934
228,193.04461745532032,6.376883855223866E-6,0.0014726579824204172
229,193.0018898531405,6.329074153447513E-6,0.0014789870565738647
230,192.96116824073465,6.321488329450312E-6,0.001485308544903315
231,192.9200463178431,6.302857816570487E-6,0.0014916114027198855
232,192.8800062372237,6.203275975850142E-6,0.0014978146786957358
233,192.8405240478976,6.143297861995945E-6,0.0015039579765577318
234,192.80126243002442,6.131736745601201E-6,0.0015100897133033331
235,192.76340767986017,6.054143451521553E-6,0.0015161438567548547
236,192.72616620083738,6.05033907817845E-6,0.001522194195833033
237,192.6891188718582,6.047102251076069E-6,0.001528241298084109
238,192.65061969865863,6.137003754021054E-6,0.00153437830183813
239,192.6094813129111,6.128047665530092E-6,0.0015405063495036603
240,192.56809199769535,6.087053659833119E-6,0.0015465934031634934
241,192.52622473413615,6.0792965982427005E-6,0.0015526726997617361
242,192.4835013649064,6.095299389874323E-6,0.0015587679991516104
243,192.4408198838713,6.04239802590618E-6,0.0015648103971775166
244,192.3992081736373,6.0022698103009555E-6,0.0015708126669878176
245,192.3566696133442,6.011303364986432E-6,0.001576823970352804
246,192.31419932678662,6.049375295697114E-6,0.001582873345648501
247,192.27142873063517,6.08491989350645E-6,0.0015889582655420073
248,192.22749708701411,6.146459112536755E-6,0.001595104724654544
249,192.18320676311686,6.137638241098978E-6,0.001601242362895643
250,192.1391365104419,6.132711965879458E-6,0.0016073750748615224
251,192.0947195698624,6.251462817645011E-6,0.0016136265376791674
252,192.05017193264908,6.284421748117589E-6,0.001619910959427285
253,192.00411072093834,6.31959126696135E-6,0.0016262305506942463
254,191.95781061787892,6.361125470892695E-6,0.001632591676165139
255,191.91124320010059,6.34107528414555E-6,0.0016389327514492846
256,191.8629560248751,6.391820104946466E-6,0.0016453245715542311
257,191.81384030925807,6.452820432847293E-6,0.0016517773919870783
258,191.76602524133045,6.3704900911090165E-6,0.0016581478820781874
259,191.7187622232177,6.246065150293984E-6,0.0016643939472284813
260,191.67089625014702,6.2443568071189594E-6,0.0016706383040356002
261,191.62324158496475,6.1484085252427645E-6,0.001676786712560843
262,191.57527783206447,6.054191240087712E-6,0.0016828409038009307
263,191.5271529870388,6.0267580684533155E-6,0.001688867661869384
264,191.47906527298954,6.0462475092688145E-6,0.0016949139093786528
265,191.43100916353487,6.0705591718435925E-6,0.0017009844685504964
266,191.38317123109923,6.038623309593105E-6,0.0017070230918600894
267,191.33738977915982,5.954738925602754E-6,0.0017129778307856923
268,191.29245005906077,5.9319924272248075E-6,0.0017189098232129171
269,191.2470772184204,6.016585788274892E-6,0.001724926409001192
270,191.20046426313382,6.0602664150762025E-6,0.0017309866754162682
271,191.15370845992194,6.0461957750912604E-6,0.0017370328711913594
272,191.1063286151835,6.10021255444232E-6,0.0017431330837458018
273,191.0591713969708,6.181944225673192E-6,0.001749315027971475
274,191.01211224348398,6.133822366290485E-6,0.0017554488503377654
275,190.96385531586378,6.2222714125280376E-6,0.0017616711217502935
276,190.915405542687,6.129728379973383E-6,0.0017678008501302669
277,190.8685487348792,6.147540325789621E-6,0.0017739483904560566
278,190.82063131945762,6.261235149341805E-6,0.0017802096256053985
279,190.77267200821055,6.189153538156073E-6,0.0017863987791435546
280,190.72428938817097,6.145702341535764E-6,0.0017925444814850904
281,190.67521153448385,6.1716648501479105E-6,0.0017987161463352383
282,190.627271386613,6.095061441970475E-6,0.0018048112077772088
283,190.57870327042025,6.067816335539373E-6,0.001810879024112748
284,190.52964231345808,6.065463164549264E-6,0.0018169444872772973
285,190.48095463012336,6.022298546145874E-6,0.0018229667858234433
286,190.4312543885447,6.058434298044233E-6,0.0018290252201214876
287,190.38293647644386,5.856724843011622E-6,0.0018348819449644992
288,190.3344895106344,5.880182062469535E-6,0.0018407621270269687
289,190.2868316052066,5.945508032344004E-6,0.0018467076350593128
290,190.2400918814174,5.913256092110243E-6,0.001852620891151423
291,190.19259316625082,5.9331123196565E-6,0.0018585540034710794
292,190.14497681661587,5.901260560511958E-6,0.0018644552640315914
293,190.0972808280654,5.9452467142396715E-6,0.001870400510745831
294,190.04951162190335,6.000118098236519E-6,0.0018764006288440674
295,190.00027880438333,6.100406709876647E-6,0.001882501035553944
296,189.95048135905859,6.122274453016262E-6,0.0018886233100069603
297,189.90037063976487,6.148292248069977E-6,0.0018947716022550303
298,189.84961123671357,6.184148035455639E-6,0.001900955750290486
299,189.79907067863977,6.229438381978323E-6,0.0019071851886724642
300,189.74891922897874,6.176376004433286E-6,0.0019133615646768974
301,189.6987492689417,6.111934387884587E-6,0.001919473499064782
302,189.64815131156436,6.107362147089162E-6,0.0019255808612118712
303,189.59593357069915,6.252478939457936E-6,0.0019318333401513292
304,189.5428321588873,6.25604085985619E-6,0.0019380893810111853
305,189.48906748296758,6.216836621363083E-6,0.0019443062176325483
306,189.4349108035538,6.267638910358127E-6,0.0019505738565429064
307,189.38099490197854,6.194863614568352E-6,0.0019567687201574747
