#t,ESS,tempDiff,temp
0,200.00000000000065,0.0,0.0
1,199.9997999999999,6.332835947290644E-6,6.332835947290644E-6
2,199.99920220219124,6.3015714880808635E-6,1.2634407435371507E-5
3,199.9982093170563,6.2234239600325575E-6,1.8857831395404066E-5
4,199.9968232717986,6.244304656776585E-6,2.510213605218065E-5
5,199.99505134509215,6.261380052489222E-6,3.136351610466987E-5
6,199.99289942005637,6.278533901145505E-6,3.7642050005815376E-5
7,199.99037124303695,6.205914281616864E-6,4.384796428743224E-5
8,199.987470092713,6.202279720903235E-6,5.005024400833548E-5
9,199.98419670616204,6.2431912378204845E-6,5.629343524615596E-5
10,199.98054581115176,6.238296198674971E-6,6.253173144483093E-5
11,199.97652615990015,6.190250321065243E-6,6.872198176589618E-5
12,199.97216018727002,6.272894293703794E-6,7.499487605959998E-5
13,199.96743746928098,6.2525687077057954E-6,8.124744476730578E-5
14,199.96236103569655,6.335863912523011E-6,8.758330867982879E-5
15,199.9569371047139,6.328824731146416E-6,9.39121334109752E-5
16,199.95113919866202,6.318585314612351E-6,1.0023071872558754E-4
17,199.9449859211359,6.212582934363476E-6,1.0644330165995102E-4
18,199.9384867696943,6.248950248812852E-6,1.1269225190876387E-4
19,199.93165604414614,6.27895605192824E-6,1.189712079606921E-4
20,199.92451285206315,6.416905343464593E-6,1.253881133041567E-4
21,199.91706397725446,6.404734921439939E-6,1.3179284822559666E-4
22,199.90928377598485,6.3245128174433815E-6,1.3811736104304005E-4
23,199.9011660091478,6.364003776037172E-6,1.4448136481907722E-4
24,199.89271995167144,6.336554155971601E-6,1.5081791897504884E-4
25,199.88397455788945,6.4047619800097475E-6,1.5722268095505858E-4
26,199.87498235229765,6.3808100367541545E-6,1.6360349099181273E-4
27,199.86572320014287,6.5210183225752515E-6,1.7012450931438799E-4
28,199.8561753575758,6.6023291442781835E-6,1.7672683845866617E-4
29,199.84640680079104,6.555483781692895E-6,1.8328232224035907E-4
30,199.83645776202374,6.53359654986082E-6,1.8981591879021987E-4
31,199.82623003515678,6.583123755327319E-6,1.963990425455472E-4
32,199.81572176702747,6.491513435839882E-6,2.028905559813871E-4
33,199.8049386302072,6.447624240198319E-6,2.0933818022158542E-4
34,199.79381589957043,6.365231245437185E-6,2.1570341146702262E-4
35,199.7823040236871,6.435014560759517E-6,2.2213842602778215E-4
36,199.77056421562017,6.481785321895612E-6,2.2862021134967777E-4
37,199.75859725127887,6.477942397720871E-6,2.3509815374739865E-4
38,199.74631941926756,6.452684575755563E-6,2.415508383231542E-4
39,199.73359624770686,6.395378632426592E-6,2.479462169555808E-4
40,199.72064279572228,6.556980245346438E-6,2.5450319720092724E-4
41,199.70740650082368,6.458993312534542E-6,2.609621905134618E-4
42,199.69386762220378,6.472853002405793E-6,2.6743504351586756E-4
43,199.6799754644464,6.5685613962747845E-6,2.7400360491214233E-4
44,199.66587112015125,6.539247090971699E-6,2.8054285200311405E-4
45,199.6514970966126,6.617783233829281E-6,2.8716063523694335E-4
46,199.63695518242287,6.61812188416406E-6,2.937787571211074E-4
47,199.6223152126783,6.635086822474778E-6,3.004138439435822E-4
48,199.60736035097497,6.596031115456877E-6,3.070098750590391E-4
49,199.59217024323416,6.581730943112632E-6,3.135916060021517E-4
50,199.5767240006789,6.415906140901413E-6,3.2000751214305315E-4
51,199.56097562568073,6.481752266713307E-6,3.2648926440976645E-4
52,199.54482887059194,6.473344587949963E-6,3.329626089977164E-4
53,199.52845929912564,6.482246831088206E-6,3.3944485582880463E-4
54,199.51195667643447,6.53667538731692E-6,3.459815312161215E-4
55,199.49515591790572,6.563367715751187E-6,3.525448989318727E-4
56,199.4778567158154,6.510596214639974E-6,3.590554951465127E-4
57,199.46039057473328,6.496729676111564E-6,3.655522248226243E-4
58,199.44253393153036,6.561795275974952E-6,3.721140200985992E-4
59,199.4245121101652,6.549092792090892E-6,3.786631128906901E-4
60,199.4061857676265,6.654882993844925E-6,3.8531799588453503E-4
61,199.38765183676045,6.739424331274986E-6,3.9205742021581003E-4
62,199.3688706809428,6.695128763759136E-6,3.9875254897956915E-4
63,199.34990589109728,6.623765657369645E-6,4.053763146369388E-4
64,199.33073817526295,6.573328363050446E-6,4.1194964299998924E-4
65,199.31145147992856,6.667601357686521E-6,4.186172443576758E-4
66,199.29179191548272,6.6447501405006865E-6,4.252619944981765E-4
67,199.2719255757218,6.785523014909016E-6,4.320475175130855E-4
68,199.25165787822428,6.919222798626132E-6,4.3896674031171167E-4
69,199.23106572268756,6.940953153350896E-6,4.4590769346506255E-4
70,199.21015866992505,6.922668656370826E-6,4.5283036212143336E-4
71,199.18878540044008,6.98304037755461E-6,4.5981340249898797E-4
72,199.16725471245363,7.085162313939116E-6,4.668985648129271E-4
73,199.14567526752953,7.074654754682459E-6,4.739732195676096E-4
74,199.12383357137634,7.059705117035191E-6,4.8103292468464477E-4
75,199.102013987428,7.077862725535747E-6,4.881107874101805E-4
76,199.07985021889988,7.090472929440644E-6,4.952012603396212E-4
77,199.05732330500715,7.01435504955335E-6,5.022156153891745E-4
78,199.03449965438563,6.989437481019062E-6,5.092050528701936E-4
79,199.0115967177689,6.821582562959092E-6,5.160266354331527E-4
80,198.98883294294447,6.684735931949027E-6,5.227113713651017E-4
81,198.96587715249456,6.641757066274691E-6,5.293531284313764E-4
82,198.94313688954003,6.796713256173468E-6,5.361498416875499E-4
83,198.92027459057317,6.815696197412503E-6,5.429655378849624E-4
84,198.89707476803738,6.770458843756374E-6,5.497359967287189E-4
85,198.87349930795057,6.752210578053051E-6,5.56488207306772E-4
86,198.84965514517802,6.797847288124276E-6,5.632860545948963E-4
87,198.82553835819112,6.713268151657787E-6,5.69999322746554E-4
88,198.80222240720414,6.637423212633635E-6,5.766367459591877E-4
89,198.7787302458827,6.556960721200342E-6,5.83193706680388E-4
90,198.7548842599256,6.533123384052965E-6,5.89726830064441E-4
91,198.73075624639807,6.45731918514875E-6,5.961841492495897E-4
92,198.70670699789366,6.4200883052835925E-6,6.026042375548733E-4
93,198.68214000371015,6.380680466986404E-6,6.089849180218597E-4
94,198.65748118063013,6.443371657611571E-6,6.154282896794713E-4
95,198.6328763508428,6.456662713883E-6,6.218849523933542E-4
96,198.60863239615878,6.461391324283361E-6,6.283463437176376E-4
97,198.58425225532176,6.326170479496531E-6,6.346725141971341E-4
98,198.55990305573653,6.312852162537428E-6,6.409853663596715E-4
99,198.53514976099027,6.30402821968564E-6,6.472893945793571E-4
100,198.51033295015026,6.3724053925830046E-6,6.536617999719402E-4
101,198.48552626494262,6.363401684467787E-6,6.60025201656408E-4
102,198.460624144706,6.4255419444126815E-6,6.664507436008206E-4
103,198.43530515075037,6.516698738471871E-6,6.729674423392925E-4
104,198.41009172701817,6.4992184896746685E-6,6.794666608289672E-4
105,198.38475779918593,6.462100006567722E-6,6.859287608355349E-4
106,198.35925032665864,6.478869736399827E-6,6.924076305719348E-4
107,198.3335701724497,6.590564237110969E-6,6.989981948090457E-4
108,198.30770030633437,6.49025780088154E-6,7.054884526099272E-4
109,198.28156848928722,6.588609931735216E-6,7.120770625416624E-4
110,198.2552370591872,6.610926990492882E-6,7.186879895321553E-4
111,198.2292032692595,6.599011521787577E-6,7.252870010539429E-4
112,198.20253040587897,6.570480953070968E-6,7.318574820070139E-4
113,198.17588370153848,6.502099665935106E-6,7.38359581672949E-4
114,198.1490457831007,6.463037752439453E-6,7.448226194253885E-4
115,198.12221659992915,6.5113070504623595E-6,7.513339264758509E-4
116,198.0947442797456,6.581880014688455E-6,7.579158064905393E-4
117,198.06717523783232,6.557838807247339E-6,7.644736452977867E-4
118,198.03915840450833,6.529411675527869E-6,7.710030569733146E-4
119,198.01057685267017,6.4733703166925105E-6,7.77476427290007E-4
120,197.98189165069533,6.429542934887176E-6,7.839059702248942E-4
121,197.95267651422589,6.410348110186433E-6,7.903163183350806E-4
122,197.92309499255862,6.455834517645884E-6,7.967721528527265E-4
123,197.89390039373527,6.477695508456337E-6,8.032498483611829E-4
124,197.86447264789692,6.474239058305762E-6,8.097240874194886E-4
125,197.8348368739235,6.566573461890671E-6,8.162906608813793E-4
126,197.80517568424233,6.659574194381209E-6,8.229502350757604E-4
127,197.7756823474783,6.698977729920588E-6,8.29649212805681E-4
128,197.7465023053384,6.622092251441556E-6,8.362713050571226E-4
129,197.7173145127197,6.6723547232487575E-6,8.429436597803713E-4
130,197.6881240753896,6.814729471207463E-6,8.497583892515787E-4
131,197.65884643970816,6.758411331167889E-6,8.565168005827466E-4
132,197.6292417801178,6.7039378812179915E-6,8.632207384639645E-4
133,197.59934437665146,6.765003735008302E-6,8.699857421989728E-4
134,197.56891997388976,6.6905145861938595E-6,8.766762567851667E-4
135,197.53874828339409,6.723277244402071E-6,8.833995340295687E-4
136,197.50811598423078,6.745736833199439E-6,8.901452708627682E-4
137,197.47763359381815,6.7220888298830424E-6,8.968673596926512E-4
138,197.44771913814057,6.801725271039538E-6,9.036690849636908E-4
139,197.4177530810458,6.750879087271771E-6,9.104199640509625E-4
140,197.387375131729,6.7526183811778685E-6,9.171725824321404E-4
141,197.35666170342608,6.680677397095338E-6,9.238532598292358E-4
142,197.3261883436644,6.732236268818038E-6,9.305854960980539E-4
143,197.29566836884388,6.692530988096808E-6,9.372780270861506E-4
144,197.26538635829115,6.647370055676535E-6,9.439253971418272E-4
145,197.23516251725871,6.556746239115768E-6,9.50482143380943E-4
146,197.20509948763956,6.494704194933523E-6,9.569768475758765E-4
147,197.17459351953693,6.5386057395771455E-6,9.635154533154536E-4
148,197.1440314985996,6.525338429117456E-6,9.700407917445711E-4
149,197.11320094376723,6.480055469149894E-6,9.76520847213721E-4
150,197.0824621491056,6.4681786928478905E-6,9.829890259065689E-4
151,197.05158349501053,6.410242595800412E-6,9.893992685023692E-4
152,197.02069223673524,6.451155666425714E-6,9.958504241687949E-4
153,196.99034446206792,6.52109913379763E-6,0.0010023715233025924
154,196.9600913849024,6.444535813386583E-6,0.0010088160591159789
155,196.92959087726348,6.504658044409623E-6,0.0010153207171603885
156,196.89905595615062,6.478545504515081E-6,0.0010217992626649036
157,196.86855648458504,6.415529549246226E-6,0.00102821479221415
158,196.8382397259675,6.37976931239199E-6,0.0010345945615265419
159,196.8077952244581,6.382692558897637E-6,0.0010409772540854395
160,196.77702399901713,6.361397702410012E-6,0.0010473386517878495
161,196.7465247562296,6.382188647712732E-6,0.0010537208404355623
162,196.71551163937468,6.328278818499472E-6,0.0010600491192540617
163,196.6846357434321,6.345174687953346E-6,0.001066394293942015
164,196.65326782015515,6.3656192821457015E-6,0.0010727599132241607
165,196.62152799358802,6.316681327822039E-6,0.0010790765945519827
166,196.58986410217727,6.430081434841952E-6,0.0010855066759868246
167,196.55826365466675,6.476953637316003E-6,0.0010919836296241407
168,196.52636533087454,6.451889873351746E-6,0.0010984355194974924
169,196.49442363472428,6.393531000389229E-6,0.0011048290504978816
170,196.46282623978607,6.322306686513596E-6,0.0011111513571843952
171,196.43178823824718,6.3076945449075E-6,0.0011174590517293028
172,196.3998457446436,6.223036437806056E-6,0.0011236820881671088
173,196.36792970607488,6.235912255188193E-6,0.001129918000422297
174,196.33598017860575,6.131916488720744E-6,0.0011360499169110177
175,196.30418774436384,6.253867366003238E-6,0.0011423037842770208
176,196.27275059252807,6.216618074297832E-6,0.0011485204023513186
177,196.24119482993692,6.347338854725952E-6,0.0011548677412060446
178,196.2086606042447,6.30383940353102E-6,0.0011611715806095757
179,196.1759949820959,6.23597748708367E-6,0.0011674075580966595
180,196.14316555559498,6.291265641519001E-6,0.0011736988237381785
181,196.11048404390456,6.2333968629348315E-6,0.0011799322206011134
182,196.0773409059545,6.2112407836328845E-6,0.0011861434613847463
183,196.04407475360077,6.270468073524314E-6,0.0011924139294582706
184,196.01055104294397,6.308649811541915E-6,0.0011987225792698124
185,195.9768814283306,6.2178056894100145E-6,0.0012049403849592223
186,195.94363461255693,6.183487351107337E-6,0.0012111238723103296
187,195.9102375691932,6.28053453566835E-6,0.001217404406845998
188,195.87687614169403,6.313819585559609E-6,0.0012237182264315575
189,195.84318378049494,6.238464505297009E-6,0.0012299566909368545
190,195.8092101061872,6.15879368297238E-6,0.001236115484619827
191,195.7748980264482,6.216931191558922E-6,0.0012423324158113858
192,195.740649387483,6.242075919009084E-6,0.0012485744917303948
193,195.70602897725962,6.182920478979273E-6,0.001254757412209374
194,195.67103174221654,6.312882659789217E-6,0.0012610702948691634
195,195.63599153322136,6.247516324018543E-6,0.0012673178111931819
196,195.60066310108976,6.170584139172381E-6,0.0012734883953323542
197,195.56562625124894,6.255872010916944E-6,0.0012797442673432712
198,195.5307993451373,6.186182964439069E-6,0.0012859304503077102
199,195.49606145288104,6.121156494631983E-6,0.001292051606802342
200,195.461548799259,6.08068345971432E-6,0.0012981322902620564
201,195.4271968969469,6.088079893629679E-6,0.001304220370155686
202,195.39299074118043,6.120875813126944E-6,0.001310341245968813
203,195.3589673594547,6.127486082169887E-6,0.0013164687320509829
204,195.32507390806614,6.133885766514019E-6,0.0013226026178174968
205,195.29073133814924,6.138756373270081E-6,0.001328741374190767
206,195.25526294813068,6.294167987322144E-6,0.0013350355421780891
207,195.21970081261904,6.307961949406559E-6,0.0013413435041274957
208,195.18414512461283,6.345837002659232E-6,0.001347689341130155
209,195.14902933033696,6.261372767566051E-6,0.001353950713897721
210,195.11466113760915,6.209559898793705E-6,0.0013601602737965146
211,195.0806405891217,6.251767368097574E-6,0.001366412041164612
212,195.04598440166623,6.2636607723331205E-6,0.0013726757019369453
213,195.0115218167699,6.2000792073728535E-6,0.0013788757811443182
214,194.977283400169,6.307303167021673E-6,0.00138518308431134
215,194.94303035349992,6.269766838788566E-6,0.0013914528511501285
216,194.90847579751616,6.242360354744678E-6,0.001397695211504873
217,194.8743056440763,6.290776362242324E-6,0.0014039859878671153
218,194.83930960999413,6.255039764108341E-6,0.0014102410276312237
219,194.8044771912695,6.232496950029237E-6,0.001416473524581253
220,194.770349138972,6.128766703794112E-6,0.001422602291285047
221,194.73541162171404,6.172614936413103E-6,0.0014287749062214601
222,194.69958724271643,6.1858385786785235E-6,0.0014349607448001385
223,194.6634162802769,6.182378160703759E-6,0.0014411431229608422
224,194.627077201968,6.137832942606626E-6,0.0014472809559034489
225,194.59138772015976,6.2799491109731115E-6,0.001453560905014422
226,194.55540402327463,6.317172977368195E-6,0.00145987807799179
227,194.51979444171255,6.403020573403252E-6,0.0014662810985651934
228,194.48435638487675,6.376883855223866E-6,0.0014726579824204172
229,194.44947604187206,6.329074153447513E-6,0.0014789870565738647
230,194.41437006660962,6.321488329450312E-6,0.001485308544903315
231,194.37825059321057,6.302857816570487E-6,0.0014916114027198855
232,194.3426215401717,6.203275975850142E-6,0.0014978146786957358
233,194.3072904082992,6.143297861995945E-6,0.0015039579765577318
234,194.27114719992016,6.131736745601201E-6,0.0015100897133033331
235,194.23512182365712,6.054143451521553E-6,0.0015161438567548547
236,194.198606395856,6.05033907817845E-6,0.001522194195833033
237,194.1617866543951,6.047102251076069E-6,0.001528241298084109
238,194.12514420374112,6.137003754021054E-6,0.00153437830183813
239,194.08873962697697,6.128047665530092E-6,0.0015405063495036603
240,194.05127413831303,6.087053659833119E-6,0.0015465934031634934
241,194.0134660624481,6.0792965982427005E-6,0.0015526726997617361
242,193.97569518504622,6.095299389874323E-6,0.0015587679991516104
243,193.9378201134317,6.04239802590618E-6,0.0015648103971775166
244,193.89937519177096,6.0022698103009555E-6,0.0015708126669878176
245,193.86085548662066,6.011303364986432E-6,0.001576823970352804
246,193.8221598745488,6.049375295697114E-6,0.001582873345648501
247,193.78431156470504,6.08491989350645E-6,0.0015889582655420073
248,193.7458366825115,6.146459112536755E-6,0.001595104724654544
249,193.70753403606457,6.137638241098978E-6,0.001601242362895643
250,193.66796850509576,6.132711965879458E-6,0.0016073750748615224
251,193.6287589721982,6.251462817645011E-6,0.0016136265376791674
252,193.59041370397006,6.284421748117589E-6,0.001619910959427285
253,193.55318247283358,6.31959126696135E-6,0.0016262305506942463
254,193.51629013256087,6.361125470892695E-6,0.001632591676165139
255,193.4793626525967,6.34107528414555E-6,0.0016389327514492846
256,193.4418722316504,6.391820104946466E-6,0.0016453245715542311
257,193.4049521835213,6.452820432847293E-6,0.0016517773919870783
258,193.36848998965382,6.3704900911090165E-6,0.0016581478820781874
259,193.3312892773911,6.246065150293984E-6,0.0016643939472284813
260,193.2946599948423,6.2443568071189594E-6,0.0016706383040356002
261,193.25729337651225,6.1484085252427645E-6,0.001676786712560843
262,193.21935020192797,6.054191240087712E-6,0.0016828409038009307
263,193.18205178088462,6.0267580684533155E-6,0.001688867661869384
264,193.14509024566487,6.0462475092688145E-6,0.0016949139093786528
265,193.10665794131796,6.0705591718435925E-6,0.0017009844685504964
266,193.0680142962691,6.038623309593105E-6,0.0017070230918600894
267,193.02890157733407,5.954738925602754E-6,0.0017129778307856923
268,192.9902986553299,5.9319924272248075E-6,0.0017189098232129171
269,192.9520849746655,6.016585788274892E-6,0.001724926409001192
270,192.9133406177709,6.0602664150762025E-6,0.0017309866754162682
271,192.87423555162917,6.0461957750912604E-6,0.0017370328711913594
272,192.83433746654637,6.10021255444232E-6,0.0017431330837458018
273,192.79363123086688,6.181944225673192E-6,0.001749315027971475
274,192.7535622580316,6.133822366290485E-6,0.0017554488503377654
275,192.7126668995993,6.2222714125280376E-6,0.0017616711217502935
276,192.67169941475746,6.129728379973383E-6,0.0017678008501302669
277,192.63067748267574,6.147540325789621E-6,0.0017739483904560566
278,192.59057134065478,6.261235149341805E-6,0.0017802096256053985
279,192.54954760029952,6.189153538156073E-6,0.0017863987791435546
280,192.50851499287464,6.145702341535764E-6,0.0017925444814850904
281,192.46800224440096,6.1716648501479105E-6,0.0017987161463352383
282,192.42726824446237,6.095061441970475E-6,0.0018048112077772088
283,192.38635005965776,6.067816335539373E-6,0.001810879024112748
284,192.34408519089294,6.065463164549264E-6,0.0018169444872772973
285,192.3010866718562,6.022298546145874E-6,0.0018229667858234433
286,192.25893225773504,6.058434298044233E-6,0.0018290252201214876
287,192.21649437026298,5.856724843011622E-6,0.0018348819449644992
288,192.17332135137238,5.880182062469535E-6,0.0018407621270269687
289,192.12967636012988,5.945508032344004E-6,0.0018467076350593128
290,192.08688866903833,5.913256092110243E-6,0.001852620891151423
291,192.0443584270088,5.9331123196565E-6,0.0018585540034710794
292,192.00244779757517,5.901260560511958E-6,0.0018644552640315914
293,191.9603977262015,5.9452467142396715E-6,0.001870400510745831
294,191.91747953209796,6.000118098236519E-6,0.0018764006288440674
295,191.8745909742378,6.100406709876647E-6,0.001882501035553944
296,191.8311714792073,6.122274453016262E-6,0.0018886233100069603
297,191.78751736832564,6.148292248069977E-6,0.0018947716022550303
298,191.74282436587015,6.184148035455639E-6,0.001900955750290486
299,191.6973119458627,6.229438381978323E-6,0.0019071851886724642
300,191.65160951656043,6.176376004433286E-6,0.0019133615646768974
301,191.60437761157462,6.111934387884587E-6,0.001919473499064782
302,191.55705447675817,6.107362147089162E-6,0.0019255808612118712
303,191.5100960419052,6.252478939457936E-6,0.0019318333401513292
304,191.46344700501788,6.25604085985619E-6,0.0019380893810111853
305,191.41664703108302,6.216836621363083E-6,0.0019443062176325483
306,191.36926439493308,6.267638910358127E-6,0.0019505738565429064
307,191.32114041856894,6.194863614568352E-6,0.0019567687201574747
