#t,ESS,tempDiff,temp
0,999.9999999999848,0.0,0.0
1,999.9901216603162,2.8885831434728468E-5,2.8885831434728468E-5
2,999.9608209268372,2.8794691110218623E-5,5.7680522544947095E-5
3,999.9119500970849,2.883046131131121E-5,8.65109838562583E-5
4,999.8436965604404,2.8845763511212125E-5,1.1535674736747043E-4
5,999.7564638554153,2.889709293345886E-5,1.442538403009293E-4
6,999.6501783415864,2.89135631319145E-5,1.731674034328438E-4
7,999.5252358797517,2.8696991982710636E-5,2.0186439541555444E-4
8,999.3821481255019,2.862365762690199E-5,2.3048805304245643E-4
9,999.2200580081857,2.8758557084539575E-5,2.59246610126996E-4
10,999.0375948729504,2.8797908832814065E-5,2.8804451895981007E-4
11,998.8359757051942,2.897287011865872E-5,3.170173890784688E-4
12,998.613915546735,2.9128259103160317E-5,3.461456481816291E-4
13,998.3744246235483,2.9074497887355462E-5,3.7522014606898455E-4
14,998.1177836438089,2.921714044023593E-5,4.044372865092205E-4
15,997.8416376154855,2.9215704046918774E-5,4.3365299055613926E-4
16,997.5437681150937,2.943431800167144E-5,4.630873085578107E-4
17,997.2319513933627,2.9446670438876435E-5,4.925339789966872E-4
18,996.9022888386446,2.9409176295119195E-5,5.219431552918064E-4
19,996.5561577143795,2.9247041525290757E-5,5.511901968170971E-4
20,996.1927146857045,2.9178628014949622E-5,5.803688248320468E-4
21,995.810639606113,2.9183195168289544E-5,6.095520200003363E-4
22,995.4130422270206,2.9556493278779476E-5,6.391085132791158E-4
23,995.0065118644178,2.950875538424051E-5,6.686172686633564E-4
24,994.5926682374651,2.9213847919788805E-5,6.978311165831451E-4
25,994.1674275926831,2.9132844526172493E-5,7.269639611093176E-4
26,993.7299643579174,2.9023417396638875E-5,7.559873785059565E-4
27,993.275559981406,2.9134631038507604E-5,7.85122009544464E-4
28,992.8098658763283,2.9029360926411834E-5,8.141513704708759E-4
29,992.3343796446248,2.9246091793363015E-5,8.433974622642389E-4
30,991.8422470740542,2.9377242161705094E-5,8.72774704425944E-4
31,991.3338455793235,2.931192461573368E-5,9.020866290416777E-4
32,990.8100054789065,2.9210454652018538E-5,9.312970836936962E-4
33,990.2706713437293,2.912023446175706E-5,9.604173181554532E-4
34,989.7192122896145,2.9421464662837658E-5,9.89838782818291E-4
35,989.157723515929,2.9273351445144226E-5,0.0010191121342634352
36,988.582942631881,2.9161632748866135E-5,0.0010482737670123013
37,988.0004549683273,2.90461075858944E-5,0.0010773198745981957
38,987.4092837766447,2.8793946354215966E-5,0.0011061138209524117
39,986.8016825055308,2.9018143253378336E-5,0.00113513196420579
40,986.1883726081757,2.8931227778500767E-5,0.0011640631919842908
41,985.5630352830659,2.9148087991626744E-5,0.0011932112799759175
42,984.9257324046941,2.911273105556726E-5,0.0012223240110314846
43,984.2781271311462,2.899511088067118E-5,0.0012513191219121558
44,983.6096507101705,2.9196193454319688E-5,0.0012805153153664754
45,982.9288909445416,2.9148804225645937E-5,0.0013096641195921215
46,982.2369191761433,2.9248728450800574E-5,0.001338912848042922
47,981.5263476773392,2.9331554838664837E-5,0.0013682444028815868
48,980.806863860423,2.9322296075137434E-5,0.0013975666989567244
49,980.0773418136611,2.947176171870882E-5,0.0014270384606754332
50,979.3482899875621,2.933837895094267E-5,0.001456376839626376
51,978.6090047905503,2.9230542438657454E-5,0.0014856073820650334
52,977.8724734902988,2.890407276764002E-5,0.0015145114548326733
53,977.1327090617656,2.889206140352773E-5,0.001543403516236201
54,976.3769175177971,2.8848308167701727E-5,0.0015722518244039028
55,975.6095629482359,2.8896817924775157E-5,0.001601148642328678
56,974.8306425551076,2.8918666456602948E-5,0.001630067308785281
57,974.0398694287255,2.8707236800858932E-5,0.0016587745455861399
58,973.2440257221127,2.848497148687654E-5,0.0016872595170730163
59,972.4343585669119,2.8545751336422943E-5,0.0017158052684094394
60,971.6128066120184,2.856223575353778E-5,0.0017443675041629771
61,970.7953671628859,2.8549495897300698E-5,0.001772917000060278
62,969.9694809721814,2.8695659382499135E-5,0.001801612659442777
63,969.1388083357091,2.856963655345697E-5,0.0018301822959962341
64,968.2917575795296,2.8542944349538162E-5,0.0018587252403457722
65,967.4381291758771,2.848175528757691E-5,0.0018872069956333492
66,966.5775373265599,2.8640824235025426E-5,0.0019158478198683746
67,965.7165133966271,2.829681761846299E-5,0.0019441446374868377
68,964.8487397068452,2.8478524797367087E-5,0.001972623162284205
69,963.9798117943593,2.830218511053765E-5,0.0020009253473947425
70,963.1013313383066,2.842277323559477E-5,0.002029348120630337
71,962.2140765613146,2.840389134604669E-5,0.002057752011976384
72,961.3242224544124,2.8309558275546827E-5,0.0020860615702519305
73,960.4243231004759,2.8566107450845687E-5,0.0021146276777027763
74,959.5211049253726,2.8464556588616525E-5,0.002143092234291393
75,958.6025311930824,2.864536405206989E-5,0.002171737598343463
76,957.6819902938104,2.8657664460810264E-5,0.002200395262804273
77,956.7662732310332,2.8503931955927155E-5,0.0022288991947602
78,955.8379434931117,2.856621566396424E-5,0.0022574654104241644
79,954.8963921132757,2.886223752266564E-5,0.00228632764794683
80,953.9549115352739,2.8628091254639303E-5,0.0023149557392014696
81,953.0129780918659,2.8393356674089742E-5,0.0023433490958755594
82,952.0690492576286,2.8447441799514023E-5,0.0023717965376750735
83,951.1058704092176,2.856893100877045E-5,0.002400365468683844
84,950.1305882904323,2.8773628528484952E-5,0.002429139097212329
85,949.1628346807342,2.8672418761751393E-5,0.0024578115159740806
86,948.172214850247,2.876041884480652E-5,0.002486571934818887
87,947.1602369299544,2.9128870146617303E-5,0.0025157008049655045
88,946.1389503264987,2.907070142879937E-5,0.002544771506394304
89,945.1227093703644,2.884062305048485E-5,0.002573612129444789
90,944.1090186307167,2.8630430412888973E-5,0.002602242559857678
91,943.0974968123912,2.8731786678545053E-5,0.002630974346536223
92,942.0863192207837,2.8867252213323167E-5,0.002659841598749546
93,941.0579573544986,2.8980667826463323E-5,0.0026888222665760095
94,940.0284429465224,2.8841181499396723E-5,0.002717663448075406
95,938.9807298442782,2.8825329022095833E-5,0.002746488777097502
96,937.9079506589562,2.9055093790554874E-5,0.0027755438708880567
97,936.8358444003255,2.8945788441995446E-5,0.002804489659330052
98,935.7622016506258,2.8861346865855998E-5,0.0028333510061959084
99,934.7066606411698,2.8506214400795516E-5,0.002861857220596704
100,933.6473871127072,2.8656124498781897E-5,0.002890513345095486
101,932.5873936867863,2.8631070047879065E-5,0.0029191444151433652
102,931.5319668321446,2.8545501137674786E-5,0.00294768991628104
103,930.4930006311968,2.8255888721492933E-5,0.002975945805002533
104,929.4736323977082,2.8043881455567224E-5,0.0030039896864581003
105,928.4337936245778,2.8027676057901418E-5,0.0030320173625160017
106,927.4109010947991,2.7959771906196972E-5,0.003059977134422199
107,926.3698107463189,2.829014283605028E-5,0.003088267277258249
108,925.3162066383595,2.827252560496243E-5,0.0031165398028632114
109,924.2526893904381,2.8382263768730033E-5,0.0031449220666319414
110,923.2030138101818,2.8300083018326107E-5,0.0031732221496502673
111,922.146151165115,2.8238314248417154E-5,0.0032014604638986844
112,921.0943902003007,2.8364384870767456E-5,0.003229824848769452
113,920.028857938408,2.8472353671391104E-5,0.003258297202440843
114,918.9574601825917,2.830116163873598E-5,0.003286598364079579
115,917.8792439567275,2.8272488975673763E-5,0.003314870853055253
116,916.7864235397111,2.829070499454314E-5,0.003343161558049796
117,915.6715980836741,2.8281614888904854E-5,0.0033714431729387007
118,914.5519763684896,2.829291080525553E-5,0.003399736083743956
119,913.4325681460967,2.822698533129358E-5,0.00342796306907525
120,912.3249925852402,2.7996692019746527E-5,0.0034559597610949963
121,911.2069354634639,2.8110065631775517E-5,0.003484069826726772
122,910.0986983776567,2.795272131689105E-5,0.003512022548043663
123,908.9947555485043,2.7968793574297486E-5,0.0035399913416179606
124,907.8791539970539,2.7886453212862547E-5,0.0035678777948308232
125,906.7519072352184,2.8012183744554987E-5,0.0035958899785753784
126,905.6186149173865,2.8103067760003885E-5,0.0036239930463353824
127,904.5058089744945,2.8131626228861883E-5,0.0036521246725642444
128,903.3811928211838,2.8274730465753596E-5,0.003680399403029998
129,902.2379850240288,2.8342574715311197E-5,0.003708741977745309
130,901.1158914494532,2.8339261903340938E-5,0.00373708123964865
131,900.0054672154589,2.830600660073726E-5,0.0037653872462493874
132,898.8878405768846,2.848190769836174E-5,0.003793869153947749
133,897.7701453961618,2.8413820693282522E-5,0.0038222829746410317
134,896.6497528397374,2.8319035212583518E-5,0.003850602009853615
135,895.5135143281396,2.8540535444397192E-5,0.0038791425452980124
136,894.3630083535969,2.8633644364593437E-5,0.003907776189662606
137,893.2006400298968,2.8812045562552708E-5,0.003936588235225158
138,892.038444425805,2.898947270692459E-5,0.003965577707932083
139,890.8776831033799,2.8968354012996687E-5,0.00399454606194508
140,889.726108082478,2.9087386041012533E-5,0.004023633447986092
141,888.5402121809481,2.8998724731283164E-5,0.004052632172717376
142,887.3480999341738,2.8876596793968684E-5,0.004081508769511345
143,886.1395988671159,2.908645768902989E-5,0.004110595227200375
144,884.9371036020068,2.916002742285961E-5,0.004139755254623234
145,883.7679917048379,2.921336941371459E-5,0.004168968624036948
146,882.5764780950882,2.926318069603682E-5,0.004198231804732985
147,881.3823337931226,2.9070203795124413E-5,0.00422730200852811
148,880.1754615454508,2.9055143197987585E-5,0.0042563571517260975
149,878.9546807563032,2.925911260973471E-5,0.004285616264335833
150,877.7364403049464,2.9304443038158883E-5,0.004314920707373992
151,876.5272589854327,2.9377430995120212E-5,0.004344298138369112
152,875.322973679555,2.9088421633116123E-5,0.0043733865600022286
153,874.1286442794661,2.893174869039012E-5,0.004402318308692619
154,872.9147831627021,2.8703704478064815E-5,0.004431022013170684
155,871.7076733952362,2.8703729822171135E-5,0.004459725742992855
156,870.4761897361744,2.884147279555092E-5,0.004488567215788406
157,869.2369496276028,2.8610736065213482E-5,0.004517177951853619
158,867.9933135180278,2.860904678106496E-5,0.004545786998634684
159,866.7495854779195,2.849530681324867E-5,0.004574282305447932
160,865.5157235875802,2.8310073508600555E-5,0.004602592378956533
161,864.2888124439368,2.8227420416999658E-5,0.004630819799373532
162,863.0899042652713,2.8097003647396708E-5,0.004658916803020929
163,861.9025546517829,2.7976207445775196E-5,0.004686893010466704
164,860.6931732910563,2.8174720870862767E-5,0.004715067731337567
165,859.4789100566011,2.824582424456025E-5,0.004743313555582127
166,858.2633355479352,2.793121136766896E-5,0.004771244766949796
167,857.0378981259647,2.793618751667835E-5,0.004799180954466475
168,855.8076786921687,2.8207719263487057E-5,0.004827388673729962
169,854.5664638544299,2.827010185012599E-5,0.004855658775580088
170,853.3182785473879,2.845605596850022E-5,0.004884114831548588
171,852.0813514427964,2.834092721440886E-5,0.0049124557587629965
172,850.8438986072557,2.8548304556766005E-5,0.004941004063319762
173,849.6051683375135,2.84985974511615E-5,0.004969502660770924
174,848.3865335962901,2.8315613023303302E-5,0.004997818273794227
175,847.188001331548,2.846795071215376E-5,0.005026286224506381
176,846.0163045158414,2.7936165676338115E-5,0.005054222390182719
177,844.8390475553792,2.8099734729266468E-5,0.0050823221249119855
178,843.6707354438944,2.8194475869974934E-5,0.0051105166007819605
179,842.5017730514289,2.809996330847104E-5,0.005138616564090432
180,841.3413594046236,2.8042124309716174E-5,0.005166658688400148
181,840.1859600000763,2.799377533605363E-5,0.0051946524637362015
182,839.0245863486542,2.799419898990272E-5,0.005222646662726104
183,837.8662983184132,2.7881909790802136E-5,0.005250528572516906
184,836.7080704466396,2.786612318219303E-5,0.0052783946956990995
185,835.5377828480057,2.7796344172789565E-5,0.005306191039871889
186,834.3743962924867,2.7972595532563844E-5,0.005334163635404452
187,833.197516629948,2.773824587313882E-5,0.005361901881277591
188,832.022370640508,2.7866125934589983E-5,0.005389768007212181
189,830.8554407652161,2.7743102537725786E-5,0.005417511109749907
190,829.7063236854083,2.7893010484537093E-5,0.005445404120234444
191,828.5645595362477,2.8196725193605303E-5,0.005473600845428049
192,827.4284608357893,2.793215084071917E-5,0.005501532996268768
193,826.2964252231629,2.7793393344589423E-5,0.005529326389613357
194,825.1526854851827,2.7820951041352436E-5,0.005557147340654709
195,823.9799900378888,2.7767431039189154E-5,0.005584914771693899
196,822.8019231252159,2.802425177931097E-5,0.0056129390234732094
197,821.6059929246214,2.8405336043875496E-5,0.005641344359517085
198,820.3977141845056,2.8552819254054286E-5,0.0056698971787711395
199,819.1736979003715,2.847495266077378E-5,0.005698372131431913
200,817.945337195032,2.8244190782540285E-5,0.005726616322214453
201,816.7223292718282,2.80856023439852E-5,0.005754701924558439
202,815.5040804546178,2.8222696118234577E-5,0.005782924620676673
203,814.3096053555544,2.80763637280216E-5,0.005811000984404695
204,813.1365600614456,2.796141180307898E-5,0.005838962396207774
205,811.9934622835283,2.782235174143206E-5,0.005866784747949206
206,810.8192723295633,2.783115783819116E-5,0.005894615905787397
207,809.6334939698652,2.758009810835738E-5,0.005922196003895755
208,808.4518841571003,2.7507871078304803E-5,0.005949703874974059
209,807.2495041912207,2.7556502244559745E-5,0.005977260377218619
210,806.0228118363309,2.756250423984949E-5,0.006004822881458469
211,804.7972291202033,2.7530355405707623E-5,0.0060323532368641766
212,803.5714519557082,2.730859764815433E-5,0.006059661834512331
213,802.3557191572628,2.725728569057419E-5,0.006086919120202905
214,801.1295889442658,2.7466279042590237E-5,0.006114385399245495
215,799.8875805729698,2.7629595411106953E-5,0.006142014994656602
216,798.6924713939892,2.7638209992857767E-5,0.00616965320464946
217,797.4917005852473,2.7477226158431786E-5,0.006197130430807892
218,796.266927689499,2.7456915290466025E-5,0.0062245873460983585
219,795.0195964345129,2.754282325775675E-5,0.006252130169356115
220,793.7940878254896,2.7255869089070657E-5,0.006279386038445186
221,792.5919695081343,2.704917081809667E-5,0.006306435209263283
222,791.3945790659504,2.6863013179042733E-5,0.006333298222442326
223,790.2049865318154,2.6711089537006955E-5,0.006360009311979333
224,789.0150992812733,2.6792083967761303E-5,0.006386801395947094
225,787.8212584318657,2.6689565952002573E-5,0.006413490961899096
226,786.6125804635252,2.686639594905785E-5,0.006440357357848154
227,785.4140621900102,2.6945521193857983E-5,0.006467302879042011
228,784.2506376402501,2.68419381748611E-5,0.006494144817216873
229,783.0874451846703,2.6989610700910542E-5,0.006521134427917783
230,781.9385514290522,2.695991231085953E-5,0.006548094340228643
231,780.7966206407065,2.7005066609488348E-5,0.006575099406838131
232,779.6542341756028,2.704606781990162E-5,0.006602145474658033
233,778.4885419082485,2.713463036066738E-5,0.0066292801050187
234,777.315162986543,2.7019178259909963E-5,0.00665629928327861
235,776.1093235092717,2.700376026377864E-5,0.006683303043542388
236,774.892912168049,2.719100607676123E-5,0.006710494049619149
237,773.6731305273892,2.7196662160121193E-5,0.00673769071177927
238,772.4593460914492,2.7125183498788557E-5,0.006764815895278059
239,771.2308470545315,2.7241789849753804E-5,0.006792057685127813
240,770.0134586432321,2.7156065600887626E-5,0.006819213750728701
241,768.8115815484517,2.7171655246646155E-5,0.006846385405975347
242,767.6133808132961,2.7185994762867827E-5,0.0068735714007382145
243,766.4419227433041,2.718690219310276E-5,0.006900758302931317
244,765.2774798184826,2.7083843021578375E-5,0.006927842145952896
245,764.1128107274841,2.716600782110673E-5,0.006955008153774003
246,762.9253714499856,2.6985663245562316E-5,0.0069819938170195646
247,761.7659086635425,2.700591852647223E-5,0.0070089997355460365
248,760.616637742358,2.69583444398666E-5,0.0070359580799859035
249,759.4712095988491,2.7072575562326567E-5,0.00706303065554823
250,758.3219511030104,2.7200890646129223E-5,0.0070902315461943595
251,757.1943229483719,2.7279454654433023E-5,0.007117511000848792
252,756.056795222485,2.7230850656158345E-5,0.00714474185150495
253,754.9219460559856,2.7229830322020595E-5,0.007171971681826971
254,753.7922466936576,2.7113053480263586E-5,0.007199084735307234
255,752.6526741900107,2.7182705130834407E-5,0.007226267440438069
256,751.5024587931983,2.700563341500918E-5,0.0072532730738530775
257,750.3755101282667,2.708916800721922E-5,0.007280362241860297
258,749.2746558623347,2.7252322298431195E-5,0.007307614564158728
259,748.1716184554539,2.7073360582149642E-5,0.007334687924740878
260,747.0874143082638,2.702139846164975E-5,0.007361709323202527
261,746.0030164509592,2.700784922433446E-5,0.007388717172426862
262,744.9233872831478,2.737466210150382E-5,0.007416091834528366
263,743.8264411424719,2.7319736000854575E-5,0.007443411570529221
264,742.7558717668363,2.7279878456720917E-5,0.007470691448985942
265,741.6919255720165,2.6984316018917792E-5,0.0074976757650048595
266,740.6182381702679,2.710060507914391E-5,0.007524776370084004
267,739.5353421834102,2.7063098069876027E-5,0.00755183946815388
268,738.4523143108244,2.682226163075258E-5,0.0075786617297846325
269,737.362778950578,2.695690494446289E-5,0.007605618634729095
270,736.25937044001,2.6979409134896596E-5,0.007632598043863992
271,735.1649996970968,2.7046749045728816E-5,0.007659644792909721
272,734.0593958965643,2.7066277201620495E-5,0.007686711070111341
273,732.927047719094,2.6819659062616766E-5,0.007713530729173958
274,731.8048323955979,2.699638125194703E-5,0.007740527110425905
275,730.6856307526685,2.7244323933437947E-5,0.007767771434359343
276,729.6043013786143,2.702953542252255E-5,0.007794800969781866
277,728.5064077748867,2.7139652326495293E-5,0.00782194062210836
278,727.3941994081299,2.743838812105574E-5,0.007849379010229416
279,726.2713216231232,2.7307954986205567E-5,0.007876686965215622
280,725.1356449427926,2.7401733946848783E-5,0.007904088699162471
281,723.9888959249685,2.7510177734670134E-5,0.007931598876897141
282,722.8560165227824,2.7446486041665182E-5,0.007959045362938807
283,721.7319854023558,2.7569912606380327E-5,0.007986615275545188
284,720.5696951440752,2.7860968167443925E-5,0.008014476243712631
285,719.4092354644825,2.7941297830300856E-5,0.008042417541542932
286,718.2493905704365,2.791430900571396E-5,0.008070331850548645
287,717.08443205857,2.794374757954589E-5,0.008098275598128191
288,715.9475006372888,2.790662457564655E-5,0.008126182222703837
289,714.813275588846,2.8078206429197142E-5,0.008154260429133035
290,713.6790677568224,2.81986425508378E-5,0.008182459071683872
291,712.541517268295,2.8268748840614542E-5,0.008210727820524486
292,711.4041605649602,2.7952320486582245E-5,0.008238680141011069
293,710.2891531097264,2.806983693988807E-5,0.008266749977950957
294,709.1997982747657,2.7761902226952542E-5,0.008294511880177909
295,708.084323587286,2.815220396196743E-5,0.008322664084139876
296,706.9425970053028,2.8332524353946306E-5,0.008350996608493822
297,705.7822038103261,2.8326064087779032E-5,0.008379322672581601
298,704.6249952403248,2.839648086448837E-5,0.00840771915344609
299,703.456652058758,2.825652455698372E-5,0.008435975678003074
300,702.2763117378556,2.8067907803594945E-5,0.008464043585806668
301,701.087343806505,2.8180786712462564E-5,0.00849222437251913
302,699.8999511136627,2.821585720373679E-5,0.008520440229722866
303,698.7323682165999,2.796277885346069E-5,0.008548403008576327
304,697.544666148222,2.7964443636842006E-5,0.00857636745221317
305,696.3758618783653,2.7788205811403648E-5,0.008604155658024573
306,695.1890891453278,2.7781815180001403E-5,0.008631937473204574
307,694.005694646139,2.7924106951476354E-5,0.00865986158015605
308,692.8281038851851,2.7696824650230268E-5,0.00868755840480628
309,691.6862975055224,2.7717549689875475E-5,0.008715275954496155
310,690.5605656150601,2.765404612716494E-5,0.00874293000062332
