#t,ESS,tempDiff,temp
0,200.00000000000065,0.0,0.0
1,199.99979999999988,5.464249799206179E-6,5.464249799206179E-6
2,199.99920501849792,5.448311024384296E-6,1.0912560823590475E-5
3,199.99821593648835,5.445353998571542E-6,1.6357914822162017E-5
4,199.99683547458676,5.486750404226994E-6,2.1844665226389012E-5
5,199.9950643499926,5.4669774066578015E-6,2.7311642633046813E-5
6,199.99290413965235,5.47737469134448E-6,3.278901732439129E-5
7,199.99035809173216,5.477871065866406E-6,3.8266888390257696E-5
8,199.98742434278128,5.4780224097377295E-6,4.374491079999543E-5
9,199.98411746615494,5.467697122884608E-6,4.9212607922880034E-5
10,199.98041571334912,5.346433858744316E-6,5.455904178162435E-5
11,199.9763408821466,5.298234725286856E-6,5.9857276506911205E-5
12,199.9718887118314,5.350935692150077E-6,6.520821219906128E-5
13,199.96706310461207,5.3515355557565155E-6,7.05597477548178E-5
14,199.96185982781023,5.369857534063014E-6,7.592960528888081E-5
15,199.9562950402289,5.417066725077452E-6,8.134667201395826E-5
16,199.95037676442487,5.469979826982955E-6,8.681665184094123E-5
17,199.9440931527274,5.4448315387728445E-6,9.226148337971407E-5
18,199.93748496608833,5.463315973481936E-6,9.772479935319601E-5
19,199.93052988352372,5.49610692990935E-6,1.0322090628310536E-4
20,199.92324473452948,5.538759745248645E-6,1.08759666028354E-4
21,199.91563253601325,5.601949863777961E-6,1.1436161589213197E-4
22,199.90767185530245,5.528912718364595E-6,1.1989052861049657E-4
23,199.89932685020437,5.5109743175802525E-6,1.2540150292807682E-4
24,199.8906568442997,5.53252547804328E-6,1.309340284061201E-4
25,199.8816464385685,5.560498034775239E-6,1.3649452644089535E-4
26,199.87234053628427,5.620829381182527E-6,1.421153558220779E-4
27,199.86273850819757,5.632172197602363E-6,1.4774752801968025E-4
28,199.85273418385268,5.6448195804335284E-6,1.5339234760011378E-4
29,199.8423885118629,5.667641072071082E-6,1.5905998867218486E-4
30,199.831670795478,5.684839916601433E-6,1.647448285887863E-4
31,199.8206500682539,5.769397104601571E-6,1.7051422569338786E-4
32,199.80932056686498,5.760237602218061E-6,1.7627446329560593E-4
33,199.79766511290282,5.747717013636369E-6,1.820221803092423E-4
34,199.78566265213203,5.676899101166299E-6,1.876990794104086E-4
35,199.77330056240203,5.624773788945877E-6,1.9332385319935447E-4
36,199.76061057986763,5.6000341366863685E-6,1.9892388733604085E-4
37,199.74758932963675,5.6271834648752114E-6,2.0455107080091605E-4
38,199.73428842844888,5.685743192153678E-6,2.1023681399306974E-4
39,199.7206152946606,5.65987878025916E-6,2.158966927733289E-4
40,199.70662026249713,5.592340001452251E-6,2.2148903277478113E-4
41,199.69228750823075,5.567266748279447E-6,2.2705629952306057E-4
42,199.67763642419055,5.567811436326461E-6,2.3262411095938704E-4
43,199.66272446218534,5.5539458300049025E-6,2.3817805678939195E-4
44,199.64749927325917,5.570479886658544E-6,2.437485366760505E-4
45,199.63196751939208,5.533686726430581E-6,2.492822234024811E-4
46,199.61610675638542,5.486185677752224E-6,2.5476840908023334E-4
47,199.5998864176007,5.504934786480744E-6,2.6027334386671407E-4
48,199.58340937893186,5.4616365407092E-6,2.6573498040742327E-4
49,199.56657781167416,5.504067938656694E-6,2.7123904834607996E-4
50,199.5494962378544,5.460221430596528E-6,2.7669926977667646E-4
51,199.53212572951347,5.500031406807286E-6,2.8219930118348377E-4
52,199.51445846718178,5.481304859256527E-6,2.876806060427403E-4
53,199.49646630994803,5.4918980809025065E-6,2.931725041236428E-4
54,199.47818889868196,5.509434411167076E-6,2.986819385348099E-4
55,199.45961766109812,5.586304884348159E-6,3.0426824341915805E-4
56,199.4411002743601,5.6245119003920175E-6,3.0989275531955005E-4
57,199.42224907015932,5.663558971097287E-6,3.155563142906473E-4
58,199.4031456296388,5.653265849852194E-6,3.2120958014049953E-4
59,199.38379386666537,5.7228951761533165E-6,3.2693247531665284E-4
60,199.36429993206133,5.796839715414894E-6,3.3272931503206774E-4
61,199.34464606589302,5.8180853126922965E-6,3.3854740034476E-4
62,199.3246579581576,5.775277562143848E-6,3.443226779069039E-4
63,199.30453216692158,5.7032149768375445E-6,3.5002589288374145E-4
64,199.28412654174303,5.6889022914248E-6,3.5571479517516625E-4
65,199.2633972339285,5.558923584949288E-6,3.6127371876011556E-4
66,199.24249531416558,5.511419014035604E-6,3.6678513777415114E-4
67,199.22126632031384,5.525422721777032E-6,3.723105604959282E-4
68,199.19958313473603,5.5244564748372985E-6,3.778350169707655E-4
69,199.1775579288501,5.526232114361577E-6,3.8336124908512707E-4
70,199.15524714289782,5.473604385363672E-6,3.8883485347049074E-4
71,199.1326683343668,5.481772559042352E-6,3.943166260295331E-4
72,199.10998377619745,5.5173782101870234E-6,3.9983400423972013E-4
73,199.08701195953273,5.530816113158472E-6,4.053648203528786E-4
74,199.06381895987153,5.494895689086712E-6,4.1085971604196527E-4
75,199.0402806488489,5.481150584802488E-6,4.1634086662676776E-4
76,199.01634470191834,5.417086422634608E-6,4.2175795304940234E-4
77,198.99200260917445,5.445564426150914E-6,4.2720351747555326E-4
78,198.967344457728,5.440573257590022E-6,4.3264409073314326E-4
79,198.9423756040278,5.4258915724626176E-6,4.3806998230560586E-4
80,198.91732476378132,5.3272727988939234E-6,4.433972551044998E-4
81,198.89192295287393,5.388572096347929E-6,4.4878582720084774E-4
82,198.8661804760215,5.4002506451790714E-6,4.541860778460268E-4
83,198.8402614008378,5.362016030265817E-6,4.5954809387629264E-4
84,198.81411289763466,5.31028551134215E-6,4.6485837938763477E-4
85,198.78796452484684,5.35083442650581E-6,4.7020921381414057E-4
86,198.7614415610118,5.459517621084905E-6,4.756687314352255E-4
87,198.73465850623214,5.507126226039854E-6,4.8117585766126533E-4
88,198.70772797806208,5.431408077117212E-6,4.8660726573838254E-4
89,198.68070574586494,5.446617757128989E-6,4.920538834955116E-4
90,198.65337790309468,5.402218461443494E-6,4.974561019569551E-4
91,198.62568612872565,5.3798565711155066E-6,5.028359585280706E-4
92,198.59767869558203,5.404436045415867E-6,5.082403945734865E-4
93,198.56937434892873,5.465488941763759E-6,5.137058835152503E-4
94,198.54071446776607,5.471071541463163E-6,5.191769550567134E-4
95,198.51188457702392,5.5189850442652115E-6,5.246959401009786E-4
96,198.48283514227958,5.483430647960949E-6,5.301793707489395E-4
97,198.45336665924322,5.540183578343944E-6,5.357195543272834E-4
98,198.42394400674686,5.569563580027701E-6,5.412891179073111E-4
99,198.39454483211756,5.640142896476724E-6,5.469292608037879E-4
100,198.36487998475286,5.607040421983583E-6,5.525363012257715E-4
101,198.33512849769798,5.606769411981752E-6,5.581430706377532E-4
102,198.30522249775996,5.666731241708853E-6,5.638098018794621E-4
103,198.27486352943876,5.600435115005241E-6,5.694102369944674E-4
104,198.24449036448394,5.613544858234195E-6,5.750237818527015E-4
105,198.21420556004645,5.612629137011231E-6,5.806364109897128E-4
106,198.18390328770647,5.610835823416586E-6,5.862472468131294E-4
107,198.15310040127943,5.6092082491641204E-6,5.918564550622935E-4
108,198.1221485138986,5.599006770807812E-6,5.974554618331013E-4
109,198.0914610435984,5.606663779226813E-6,6.030621256123281E-4
110,198.0606062533705,5.573601063390167E-6,6.086357266757182E-4
111,198.02991085379168,5.512707255139522E-6,6.141484339308577E-4
112,197.99881167298776,5.553286294823565E-6,6.197017202256813E-4
113,197.96717435544724,5.495080983873904E-6,6.251968012095553E-4
114,197.935476842378,5.54793451950509E-6,6.307447357290604E-4
115,197.90386745996176,5.578436204318323E-6,6.363231719333787E-4
116,197.87180720269552,5.6574012986929E-6,6.419805732320716E-4
117,197.83957849383282,5.689970216963873E-6,6.476705434490355E-4
118,197.8074188323306,5.6042299656351026E-6,6.532747734146705E-4
119,197.7748521429251,5.632786695268592E-6,6.589075601099391E-4
120,197.74209827658274,5.594777650985893E-6,6.64502337760925E-4
121,197.70934913851372,5.564697965212981E-6,6.70067035726138E-4
122,197.67655315493167,5.567821252131942E-6,6.756348569782699E-4
123,197.64362304370303,5.596204725584839E-6,6.812310617038547E-4
124,197.61064725960995,5.5505217854917155E-6,6.867815834893465E-4
125,197.5774648326901,5.537360385223853E-6,6.923189438745703E-4
126,197.5438606681631,5.503605375429613E-6,6.978225492499999E-4
127,197.51006309266026,5.462823877352529E-6,7.032853731273525E-4
128,197.47587886225585,5.41538590665762E-6,7.087007590340101E-4
129,197.44129042117885,5.426195189770066E-6,7.141269542237801E-4
130,197.40662373520826,5.453419059971627E-6,7.195803732837517E-4
131,197.37169845044002,5.471137960869401E-6,7.250515112446211E-4
132,197.3366751493263,5.464455146599294E-6,7.305159663912204E-4
133,197.3016066433578,5.4408971608948434E-6,7.359568635521152E-4
134,197.2662716713117,5.4317215924526176E-6,7.413885851445678E-4
135,197.2305544528137,5.50413116354133E-6,7.468927163081092E-4
136,197.19455438501774,5.43404203283236E-6,7.523267583409415E-4
137,197.15810393739613,5.41431913821725E-6,7.577410774791588E-4
138,197.12141780356248,5.382822495848494E-6,7.631238999750073E-4
139,197.08394221995147,5.36156750808715E-6,7.684854674830944E-4
140,197.04637474825068,5.366672038962913E-6,7.738521395220573E-4
141,197.00889631988855,5.340362842605865E-6,7.791925023646632E-4
142,196.97144975140046,5.347977805425874E-6,7.84540480170089E-4
143,196.93384126934993,5.362375842944207E-6,7.899028560130332E-4
144,196.89588388802585,5.414130014287208E-6,7.953169860273205E-4
145,196.85786844662505,5.349818135757481E-6,8.006668041630779E-4
146,196.81972455770082,5.427957063588392E-6,8.060947612266664E-4
147,196.78135689031026,5.461011410830899E-6,8.115557726374973E-4
148,196.742954946526,5.470485838499759E-6,8.170262584759971E-4
149,196.70448857784191,5.547248015752298E-6,8.225735064917494E-4
150,196.6660683005039,5.613696434664685E-6,8.281872029264141E-4
151,196.62781538777307,5.656811201156721E-6,8.338440141275709E-4
152,196.58972126147071,5.751090517402238E-6,8.395951046449731E-4
153,196.55125383075065,5.74014479433646E-6,8.453352494393095E-4
154,196.51251558003563,5.797705487424086E-6,8.511329549267336E-4
155,196.47352414989948,5.841172711930788E-6,8.569741276386644E-4
156,196.43413883744915,5.78044801503677E-6,8.627545756537012E-4
157,196.39474336183508,5.763882281262412E-6,8.685184579349636E-4
158,196.35545997339923,5.751043476611478E-6,8.74269501411575E-4
159,196.31626914840336,5.731217350809259E-6,8.800007187623843E-4
160,196.27630169213842,5.717134343545392E-6,8.857178531059297E-4
161,196.23646419508194,5.655559016532096E-6,8.913734121224618E-4
162,196.1963992412021,5.758247833042124E-6,8.971316599555039E-4
163,196.15597932502345,5.719011897237759E-6,9.028506718527417E-4
164,196.11546827476104,5.725231595109092E-6,9.085759034478508E-4
165,196.07472960935516,5.6840128731872465E-6,9.142599163210381E-4
166,196.03350148602064,5.647176056295925E-6,9.19907092377334E-4
167,195.99279439580653,5.5876106894364615E-6,9.254947030667705E-4
168,195.95228854405983,5.623070153508595E-6,9.311177732202791E-4
169,195.91178930049117,5.565899940551222E-6,9.366836731608304E-4
170,195.87125830074993,5.596564731027091E-6,9.422802378918575E-4
171,195.83045992700445,5.6413952363638294E-6,9.479216331282213E-4
172,195.78921432578323,5.632094632315172E-6,9.535537277605365E-4
173,195.74770968638757,5.619936747545506E-6,9.59173664508082E-4
174,195.7058549100745,5.612335196457283E-6,9.647859997045393E-4
175,195.66403810126624,5.595580806136257E-6,9.703815805106755E-4
176,195.6231271475277,5.604390978239925E-6,9.759859714889154E-4
177,195.58186233299764,5.619020581931723E-6,9.816049920708472E-4
178,195.54103984335254,5.613461772986926E-6,9.87218453843834E-4
179,195.50041123370684,5.59770500214987E-6,9.92816158845984E-4
180,195.45986028326192,5.498371875432325E-6,9.983145307214164E-4
181,195.4189698237043,5.372623406357907E-6,0.0010036871541277742
182,195.3779518426909,5.425626821785454E-6,0.0010091127809495597
183,195.3369539608731,5.424552814734763E-6,0.0010145373337642944
184,195.29622712001566,5.434528672284887E-6,0.0010199718624365793
185,195.25520630224483,5.499199863354801E-6,0.0010254710622999341
186,195.21465023602877,5.45622553759694E-6,0.001030927287837531
187,195.17378288726073,5.394876893049167E-6,0.0010363221647305802
188,195.13283652381548,5.390972820690675E-6,0.0010417131375512708
189,195.09241227330872,5.334532889248429E-6,0.0010470476704405192
190,195.05179088795146,5.285922886377931E-6,0.001052333593326897
191,195.01045180382698,5.2566617545164995E-6,0.0010575902550814136
192,194.9682565774613,5.264251355604236E-6,0.0010628545064370178
193,194.9257412991906,5.219455258206967E-6,0.0010680739616952247
194,194.8829058597489,5.11781891090506E-6,0.0010731917806061297
195,194.83907988349816,5.226148341814411E-6,0.001078417928947944
196,194.7954262013953,5.2297301398631785E-6,0.0010836476590878072
197,194.7519790888035,5.141344297877845E-6,0.0010887890033856851
198,194.7083864022845,5.134037437124383E-6,0.0010939230408228094
199,194.6652621037088,5.096977711631411E-6,0.001099020018534441
200,194.6223116506358,5.019568298413984E-6,0.001104039586832855
201,194.57956625023297,4.9847801850724185E-6,0.0011090243670179272
202,194.53689661289997,4.992017294638055E-6,0.0011140163843125653
203,194.4941693030534,4.936132727584267E-6,0.0011189525170401495
204,194.45118077914856,4.896890700626506E-6,0.001123849407740776
205,194.40735940904352,4.9620740753528845E-6,0.0011288114818161288
206,194.36377102992873,4.992473177669528E-6,0.0011338039549937983
207,194.32016375454856,4.993833668332796E-6,0.001138797788662131
208,194.2766254963537,4.961278075980058E-6,0.0011437590667381112
209,194.23296102502067,5.0327660946762215E-6,0.0011487918328327875
210,194.18913123312927,5.064444528779978E-6,0.0011538562773615675
211,194.1454675527356,5.100750879529981E-6,0.0011589570282410976
212,194.1008749352293,5.083952699688547E-6,0.0011640409809407861
213,194.055390626707,5.106289635870986E-6,0.0011691472705766572
214,194.0098798751139,5.0633939468259795E-6,0.001174210664523483
215,193.96477974281524,5.085842802765296E-6,0.0011792965073262483
216,193.9193562886467,5.068824579507146E-6,0.0011843653319057554
217,193.87390757304382,5.1101258947645155E-6,0.0011894754578005199
218,193.82860893175612,5.106365733023564E-6,0.0011945818235335433
219,193.7832377619635,5.090397455644647E-6,0.001199672220989188
220,193.7378458472587,5.123480204586014E-6,0.001204795701193774
221,193.6923114123651,5.141413882392557E-6,0.0012099371150761666
222,193.64648305565868,5.138525442579255E-6,0.0012150756405187458
223,193.60045118766158,5.132946558068542E-6,0.0012202085870768144
224,193.55452116311795,5.204789682572335E-6,0.0012254133767593868
225,193.5082526284057,5.133792335232039E-6,0.0012305471690946188
226,193.46205865580572,5.0604698158115494E-6,0.0012356076389104303
227,193.41626446654672,5.063898246203673E-6,0.0012406715371566339
228,193.3703008762689,5.09505575687627E-6,0.00124576659291351
229,193.32474464323434,5.089997380132073E-6,0.0012508565902936422
230,193.2795108843492,5.1133158542065066E-6,0.0012559699061478486
231,193.2346730400145,5.091125913685712E-6,0.0012610610320615344
232,193.1893497190306,5.099126116712099E-6,0.0012661601581782464
233,193.14397920222197,5.123598257961635E-6,0.0012712837564362082
234,193.0981571479551,5.150032095193603E-6,0.0012764337885314018
235,193.05198485051838,5.134675020774888E-6,0.0012815684635521768
236,193.00575365849764,5.134809218222333E-6,0.001286703272770399
237,192.95928784298692,5.141016927012971E-6,0.001291844289697412
238,192.91255332971892,5.1436735051204975E-6,0.0012969879632025326
239,192.86569492997518,5.1650574250427006E-6,0.0013021530206275753
240,192.81876368284333,5.258773272263137E-6,0.0013074117938998385
241,192.77160574017228,5.301903665825807E-6,0.0013127136975656644
242,192.72453880920838,5.329426669791793E-6,0.0013180431242354562
243,192.67777707576164,5.382927194961651E-6,0.0013234260514304178
244,192.63047881023383,5.377159320553962E-6,0.0013288032107509717
245,192.58239566979393,5.363262573398625E-6,0.0013341664733243703
246,192.5341686630075,5.37438413130864E-6,0.001339540857455679
247,192.48545369210547,5.320358534790749E-6,0.0013448612159904696
248,192.4367397814868,5.326151123049305E-6,0.001350187367113519
249,192.3882966310849,5.279125542276243E-6,0.0013554664926557951
250,192.34009640150026,5.266370039545374E-6,0.0013607328626953404
251,192.29166931004647,5.168180438236162E-6,0.0013659010431335767
252,192.2437561313356,5.196384743202678E-6,0.0013710974278767793
253,192.19560682512284,5.234477610784599E-6,0.001376331905487564
254,192.14751260204048,5.233555697244188E-6,0.0013815654611848082
255,192.09901426154258,5.263569712234966E-6,0.0013868290308970432
256,192.0501528720414,5.306893846524066E-6,0.0013921359247435672
257,192.00147002076386,5.194667246813815E-6,0.001397330591990381
258,191.9524077373455,5.187123520748049E-6,0.0014025177155111291
259,191.90263409752527,5.146763631600745E-6,0.00140766447914273
260,191.8529093892928,5.1637739397184474E-6,0.0014128282530824483
261,191.80310879021468,5.123962479087346E-6,0.0014179522155615357
262,191.7530385266854,5.153485085087754E-6,0.0014231057006466234
263,191.7033240694028,5.175933930111968E-6,0.0014282816345767353
264,191.65341775436625,5.135719433877229E-6,0.0014334173540106125
265,191.6035392860552,5.144906446630167E-6,0.0014385622604572426
266,191.55394299022257,5.106080968566879E-6,0.0014436683414258094
267,191.50426784698158,5.102371645405464E-6,0.001448770713071215
268,191.4546195218484,5.146898232219531E-6,0.0014539176113034344
269,191.40511262197677,5.169919530564424E-6,0.001459087530833999
270,191.35532959091705,5.199428328786063E-6,0.001464286959162785
271,191.30577676555077,5.098652815674975E-6,0.00146938561197846
272,191.2561314988276,5.143670301470175E-6,0.0014745292822799301
273,191.20643944035652,5.163998762682187E-6,0.0014796932810426124
274,191.15570472009202,5.069888483760361E-6,0.0014847631695263728
275,191.10378710147577,5.107478442475388E-6,0.0014898706479688482
276,191.05255236423733,5.108301910384059E-6,0.0014949789498792322
277,191.00127266122612,5.022836900458765E-6,0.001500001786779691
278,190.95033989563575,5.031146642682708E-6,0.0015050329334223738
279,190.89933980571936,5.026663723786202E-6,0.00151005959714616
280,190.84881012820352,5.0886375576984215E-6,0.0015151482347038584
281,190.79851881259714,5.102634814054309E-6,0.0015202508695179126
282,190.7473128820711,5.102102517305437E-6,0.0015253529720352182
283,190.69587158784068,5.03148525496108E-6,0.0015303844572901793
284,190.6439183074646,4.985707765827784E-6,0.0015353701650560072
285,190.59157683423052,5.023656004848079E-6,0.0015403938210608553
286,190.53943497189923,5.046310767858369E-6,0.0015454401318287137
287,190.48743347711397,5.059613083510264E-6,0.001550499744912224
288,190.4351627858978,5.063840524095226E-6,0.0015555635854363193
289,190.38229197752358,5.029683527171353E-6,0.0015605932689634907
290,190.32952049471186,4.9783895279551705E-6,0.0015655716584914458
291,190.2765394025014,4.9568992357228975E-6,0.0015705285577271688
292,190.2236696731225,4.994607261153553E-6,0.0015755231649883224
293,190.17050609770473,5.008709631843768E-6,0.001580531874620166
294,190.11752620239614,4.930300883702136E-6,0.001585462175503868
295,190.06542827583397,4.937855210634654E-6,0.0015904000307145028
296,190.01353002637168,4.934766615407251E-6,0.0015953347973299101
297,189.96189617114044,4.9431771332826E-6,0.0016002779744631926
298,189.91084067489342,5.004277505339249E-6,0.001605282251968532
299,189.85992834561466,4.985467241924197E-6,0.0016102677192104562
300,189.80813286886487,4.980290515391436E-6,0.0016152480097258476
301,189.7556989966464,4.968702851215406E-6,0.001620216712577063
302,189.70279233612615,4.9665758103722E-6,0.0016251832883874351
303,189.6495871305334,4.938553827503266E-6,0.0016301218422149384
304,189.5956288186661,4.919188231909264E-6,0.0016350410304468476
305,189.54159626689193,4.882705323708813E-6,0.0016399237357705564
306,189.48716620550863,4.913730923622874E-6,0.0016448374666941793
307,189.43249763465147,4.953150921448641E-6,0.0016497906176156278
