#t,ESS,tempDiff,temp
0,200.00000000000065,0.0,0.0
1,199.99979999999982,4.117719904920762E-6,4.117719904920762E-6
2,199.99920290465656,4.1073403266280745E-6,8.225060231548837E-6
3,199.99821099032798,4.0689475006248664E-6,1.2294007732173704E-5
4,199.99682871536606,4.040300009882387E-6,1.633430774205609E-5
5,199.99505533353056,4.034369505647365E-6,2.0368677247703456E-5
6,199.99290782394954,4.034979009435726E-6,2.4403656257139183E-5
7,199.99037528583108,3.970104780240249E-6,2.837376103737943E-5
8,199.9874583436459,3.995629197081015E-6,3.236939023446044E-5
9,199.984156869251,4.029345719292746E-6,3.6398735953753186E-5
10,199.98046628159045,4.010549064092035E-6,4.040928501784522E-5
11,199.97639900424625,3.935223732780918E-6,4.434450875062614E-5
12,199.97195513373268,3.908644588464503E-6,4.8253153339090645E-5
13,199.9671591102083,3.868248395125324E-6,5.2121401734215966E-5
14,199.9619930706514,3.908076837263522E-6,5.6029478571479485E-5
15,199.95646356102998,3.921228926303597E-6,5.995070749778308E-5
16,199.95056118670036,3.895644929617532E-6,6.384635242740062E-5
17,199.94430250570272,3.894259794592941E-6,6.774061222199356E-5
18,199.937700746997,3.8674144223381724E-6,7.160802664433173E-5
19,199.93071605581096,3.883315440894351E-6,7.549134208522609E-5
20,199.92337105936718,3.8820441119045E-6,7.937338619713059E-5
21,199.915654347625,3.882825710119611E-6,8.32562119072502E-5
22,199.90756770265267,3.862125179971297E-6,8.71183370872215E-5
23,199.89911227787414,3.8537561120053925E-6,9.09720931992269E-5
24,199.8902897297576,3.840005540423397E-6,9.48120987396503E-5
25,199.88111380022252,3.824827133080427E-6,9.863692587273072E-5
26,199.87157644763826,3.838611230427522E-6,1.0247553710315824E-4
27,199.86170523693542,3.84374531982947E-6,1.063192824229877E-4
28,199.85147877715664,3.857637813040862E-6,1.1017692023602857E-4
29,199.84091188478422,3.819185444466814E-6,1.1399610568049539E-4
30,199.83006405036969,3.7997987121937232E-6,1.1779590439268911E-4
31,199.8189218578123,3.823469202517027E-6,1.2161937359520614E-4
32,199.80744119944444,3.839674991255256E-6,1.254590485864614E-4
33,199.79561301144972,3.827399908218101E-6,1.292864484946795E-4
34,199.78341964479063,3.8577310934662226E-6,1.331441795881457E-4
35,199.7709089751138,3.841058855758078E-6,1.3698523844390379E-4
36,199.75809793064303,3.8561760389185184E-6,1.408414144828223E-4
37,199.74499367154309,3.868903954180385E-6,1.447103184370027E-4
38,199.731606306133,3.898545216405264E-6,1.4860886365340796E-4
39,199.7179349364094,3.848651619420042E-6,1.52457515272828E-4
40,199.7039418462152,3.852872643694436E-6,1.5631038791652244E-4
41,199.68960494792643,3.8433183766795956E-6,1.6015370629320205E-4
42,199.67495181863544,3.830800698914654E-6,1.639845069921167E-4
43,199.6599880555588,3.844602320074533E-6,1.6782910931219125E-4
44,199.6446991464902,3.824725537089528E-6,1.716538348492808E-4
45,199.62906657134494,3.827274496673211E-6,1.75481109345954E-4
46,199.6130654445613,3.853040281235728E-6,1.7933414962718975E-4
47,199.596719358634,3.876689339809676E-6,1.8321083896699942E-4
48,199.58006217826366,3.862313757138651E-6,1.8707315272413808E-4
49,199.56312365469867,3.851973090053856E-6,1.9092512581419193E-4
50,199.5458439170281,3.883391463969256E-6,1.9480851727816118E-4
51,199.5283186800646,3.81275261893216E-6,1.9862126989709334E-4
52,199.51054486288956,3.855117306713834E-6,2.0247638720380718E-4
53,199.492437549269,3.867154850645395E-6,2.0634354205445257E-4
54,199.47397274524033,3.888207135917099E-6,2.1023174919036967E-4
55,199.4552290839523,3.889792980228568E-6,2.1412154217059824E-4
56,199.436262937997,3.826232123770398E-6,2.1794777429436863E-4
57,199.4169412350786,3.8099721364449588E-6,2.217577464308136E-4
58,199.39735738411017,3.829086679077549E-6,2.2558683310989114E-4
59,199.377452574062,3.891970540517533E-6,2.2947880365040867E-4
60,199.35722564248687,3.950122408926521E-6,2.334289260593352E-4
61,199.3368458680803,3.897606428815443E-6,2.3732653248815063E-4
62,199.3161925645634,3.895755435110352E-6,2.4122228792326097E-4
63,199.29518864736824,3.8694179715351264E-6,2.450917058947961E-4
64,199.27404443805213,3.849813104871168E-6,2.4894151899966727E-4
65,199.25259916200415,3.841176982258588E-6,2.5278269598192585E-4
66,199.2308933815393,3.825875764837864E-6,2.566085717467637E-4
67,199.20898954294807,3.889545139360667E-6,2.604981168861244E-4
68,199.18679527699499,3.891847091055335E-6,2.6438996397717973E-4
69,199.16430567455578,3.876342607504827E-6,2.682663065846846E-4
70,199.14156369066492,3.896917206397092E-6,2.7216322379108166E-4
71,199.11871989943967,3.898946814254777E-6,2.7606217060533643E-4
72,199.09565238318308,3.930189176265693E-6,2.7999235978160215E-4
73,199.07242963542873,3.926657135765152E-6,2.839190169173673E-4
74,199.04892553250554,3.907658570465877E-6,2.878266754878332E-4
75,199.0249042555306,3.871312011457037E-6,2.9169798749929023E-4
76,199.00067985918577,3.929932561120309E-6,2.9562792006041053E-4
77,198.97612599731795,3.9044140842936054E-6,2.995323341447041E-4
78,198.95133644903072,3.840287608123107E-6,3.033726217528272E-4
79,198.92647365314687,3.847924336779617E-6,3.0722054608960683E-4
80,198.90149813469768,3.8752175100957486E-6,3.1109576359970257E-4
81,198.8760046507869,3.888788123605402E-6,3.1498455172330797E-4
82,198.85046927557977,3.852507517294394E-6,3.1883705924060237E-4
83,198.82472866726263,3.852045757518076E-6,3.2268910499812047E-4
84,198.7986397396232,3.85875395942913E-6,3.265478589575496E-4
85,198.77214371206512,3.862090352025429E-6,3.3040994930957505E-4
86,198.74534517249842,3.853489919752372E-6,3.3426343922932745E-4
87,198.71830066746958,3.8706011634456096E-6,3.381340403927731E-4
88,198.69113469581737,3.902231685611778E-6,3.420362720783849E-4
89,198.66378973555905,3.893977100144717E-6,3.459302491785296E-4
90,198.63603149327125,3.907398570402227E-6,3.498376477489318E-4
91,198.608036213291,3.911494488639134E-6,3.5374914223757094E-4
92,198.57981540257362,3.910292787306498E-6,3.576594350248774E-4
93,198.55147191642584,3.912734015575795E-6,3.6157216904045324E-4
94,198.5229284017275,3.925421945569281E-6,3.6549759098602254E-4
95,198.4939910390221,3.895825336347456E-6,3.6939341632237E-4
96,198.4650607860539,3.8912410460923776E-6,3.732846573684624E-4
97,198.43597354284228,3.876643097492184E-6,3.7716130046595457E-4
98,198.40667985444958,3.840713352147709E-6,3.810020138181023E-4
99,198.37694284739467,3.87643392209518E-6,3.8487844774019747E-4
100,198.34687366417864,3.828162084909889E-6,3.8870660982510735E-4
101,198.31641202137513,3.868109812187169E-6,3.925747196372945E-4
102,198.28571923356435,3.884957120134315E-6,3.964596767574288E-4
103,198.25467913677124,3.924111975395706E-6,4.003837887328245E-4
104,198.22353944047944,3.938138169498538E-6,4.0432192690232304E-4
105,198.1917216612383,3.9352273500688624E-6,4.082571542523919E-4
106,198.15973390260848,3.957835174221872E-6,4.122149894266138E-4
107,198.12763698903052,3.897466757899786E-6,4.161124561845136E-4
108,198.0953565140938,3.888612980850751E-6,4.200010691653644E-4
109,198.06311646101756,3.867853117206062E-6,4.2386892228257045E-4
110,198.03059902753924,3.867213326109788E-6,4.277361356086802E-4
111,197.99788366393133,3.822547173185436E-6,4.315586827818657E-4
112,197.96476297940427,3.85356407098673E-6,4.3541224685285243E-4
113,197.93143595918255,3.858209785773391E-6,4.3927045663862585E-4
114,197.89753457494055,3.8692668372517825E-6,4.431397234758776E-4
115,197.86327776594953,3.891206693826426E-6,4.4703093016970407E-4
116,197.82889884881297,3.8972053352907865E-6,4.509281355049949E-4
117,197.79436352625498,3.8743630088726E-6,4.548024985138675E-4
118,197.75969368604595,3.8600237153503845E-6,4.5866252222921786E-4
119,197.72505105815333,3.843049216420937E-6,4.625055714456388E-4
120,197.68995498978944,3.845444396507983E-6,4.6635101584214676E-4
121,197.65452194208203,3.853223395498554E-6,4.702042392376453E-4
122,197.61886848276117,3.884044979465511E-6,4.7408828421711084E-4
123,197.5829502173582,3.8987371639320495E-6,4.779870213810429E-4
124,197.5472924072783,3.933368207019852E-6,4.8192038958806276E-4
125,197.51154805056834,3.9048917641925355E-6,4.858252813522553E-4
126,197.47566934720726,3.884851580005893E-6,4.897101329322612E-4
127,197.4392005427238,3.859303329342758E-6,4.93569436261604E-4
128,197.40277942150212,3.885000133125605E-6,4.974544363947296E-4
129,197.3666158493412,3.940029389059922E-6,5.013944657837895E-4
130,197.33015327755788,3.9175982532024924E-6,5.05312064036992E-4
131,197.29362904276323,3.8743166096808086E-6,5.091863806466728E-4
132,197.2571305458242,3.884556325986211E-6,5.130709369726591E-4
133,197.22050505763178,3.928339634187288E-6,5.169992766068463E-4
134,197.18363891171117,3.9658481924384485E-6,5.209651247992848E-4
135,197.14659159780564,3.996888834463666E-6,5.249620136337484E-4
136,197.10906828505063,3.967053918035933E-6,5.289290675517844E-4
137,197.07118366768103,3.9334590087765285E-6,5.328625265605609E-4
138,197.03311177790627,3.945009593880476E-6,5.368075361544414E-4
139,196.99518416417456,3.922561292874945E-6,5.407300974473164E-4
140,196.9567914894738,3.961661044659906E-6,5.446917584919763E-4
141,196.918306259306,3.996486998311379E-6,5.486882454902877E-4
142,196.879439883051,3.9519715667892865E-6,5.526402170570769E-4
143,196.84046228336885,3.96753838569122E-6,5.566077554427681E-4
144,196.80139248161333,3.961755521995736E-6,5.605695109647638E-4
145,196.7620770108533,3.96951005767677E-6,5.645390210224406E-4
146,196.72273701234639,3.903984244133011E-6,5.684430052665736E-4
147,196.6830564193049,3.870186487290437E-6,5.723131917538641E-4
148,196.64346579471126,3.848550699727104E-6,5.761617424535912E-4
149,196.60382357195445,3.857040943948303E-6,5.800187833975395E-4
150,196.5643075672224,3.855389332517791E-6,5.838741727300573E-4
151,196.5244346540407,3.814444548764826E-6,5.876886172788222E-4
152,196.48459358890014,3.7951216697763765E-6,5.914837389485986E-4
153,196.44425575935244,3.7674864165102245E-6,5.952512253651088E-4
154,196.40351858599016,3.7621096939976242E-6,5.990133350591065E-4
155,196.36281325665652,3.751064530780129E-6,6.027643995898866E-4
156,196.3222275264172,3.7651092909131085E-6,6.065295088807997E-4
157,196.2812495028418,3.7413663010131543E-6,6.102708751818129E-4
158,196.23983940773718,3.7478858734572776E-6,6.140187610552702E-4
159,196.1982930805638,3.7658630029376863E-6,6.177846240582078E-4
160,196.15629618483644,3.770714218684891E-6,6.215553382768927E-4
161,196.11404413155552,3.737901795210372E-6,6.252932400721031E-4
162,196.0714471465604,3.7281955572767325E-6,6.290214356293798E-4
163,196.02879822696053,3.747836800944073E-6,6.327692724303239E-4
164,195.98582603278575,3.7071845222701555E-6,6.36476456952594E-4
165,195.94269257817282,3.699802633153219E-6,6.401762595857472E-4
166,195.8995714365493,3.673684062747717E-6,6.438499436484949E-4
167,195.85606096158062,3.7029424828465784E-6,6.475528861313415E-4
168,195.8124715044613,3.7486309449856643E-6,6.513015170763271E-4
169,195.7683011360503,3.7677434451149003E-6,6.550692605214421E-4
170,195.72361341102902,3.8162487372013745E-6,6.588855092586435E-4
171,195.67892872149912,3.828024126224963E-6,6.627135333848685E-4
172,195.63494046119885,3.7975404648746724E-6,6.665110738497432E-4
173,195.59079227649798,3.8022571899055994E-6,6.703133310396488E-4
174,195.54620692379362,3.7769733384212516E-6,6.740903043780701E-4
175,195.50148049219038,3.751436607331697E-6,6.778417409854018E-4
176,195.45628321150767,3.732089226515182E-6,6.81573830211917E-4
177,195.41084554075684,3.7198088954123074E-6,6.852936391073294E-4
178,195.3651385034359,3.6997878117438835E-6,6.889934269190733E-4
179,195.31944275361684,3.699344365144727E-6,6.92692771284218E-4
180,195.2735613436961,3.7081642864673036E-6,6.964009355706853E-4
181,195.22795520697514,3.690633330389062E-6,7.000915689010744E-4
182,195.18203408303918,3.701718582109058E-6,7.037932874831834E-4
183,195.13627536431767,3.6801438407027315E-6,7.074734313238861E-4
184,195.0908494728113,3.676432460852588E-6,7.111498637847387E-4
185,195.04518589375,3.660840050057848E-6,7.148107038347966E-4
186,194.99904650502094,3.6952346509128753E-6,7.185059384857095E-4
187,194.9526995513717,3.697300557774107E-6,7.222032390434836E-4
188,194.90613420361186,3.729768628472983E-6,7.259330076719566E-4
189,194.85945458031108,3.68196923389865E-6,7.296149769058552E-4
190,194.81237023009584,3.701403155549255E-6,7.333163800614045E-4
191,194.764893052216,3.7207376204660065E-6,7.370371176818705E-4
192,194.71738511456348,3.729897445434663E-6,7.407670151273051E-4
193,194.66959443415146,3.7343666496241085E-6,7.445013817769292E-4
194,194.62165144669672,3.785377791572716E-6,7.48286759568502E-4
195,194.5734454473665,3.7601614140570464E-6,7.52046920982559E-4
196,194.52501680641197,3.750856271616905E-6,7.55797777254176E-4
197,194.47608501935267,3.7890294765945657E-6,7.595868067307705E-4
198,194.4269149665729,3.800716197207504E-6,7.633875229279781E-4
199,194.37726258984196,3.810082100050313E-6,7.671976050280284E-4
200,194.3265812436477,3.7913434991637564E-6,7.709889485271921E-4
201,194.27547539926417,3.7525720495832563E-6,7.747415205767754E-4
202,194.22396959969305,3.717923233693128E-6,7.784594438104685E-4
203,194.17225399805616,3.7381672808926647E-6,7.821976110913612E-4
204,194.12041399413846,3.7054522562461765E-6,7.859030633476073E-4
205,194.06854230974085,3.703455488573254E-6,7.896065188361806E-4
206,194.01677154225467,3.723364314518117E-6,7.933298831506987E-4
207,193.9648865676255,3.7327608420204945E-6,7.970626439927191E-4
208,193.91325685718613,3.7221050773627944E-6,8.007847490700819E-4
209,193.86152788532573,3.6995250726133702E-6,8.044842741426953E-4
210,193.80962713639042,3.7152948348089537E-6,8.081995689775042E-4
211,193.75803762462903,3.7697816313151274E-6,8.119693506088194E-4
212,193.70603138549697,3.746420445114596E-6,8.15715771053934E-4
213,193.6530675887857,3.7061348329212035E-6,8.194219058868552E-4
214,193.59999303859766,3.7190409959603025E-6,8.231409468828155E-4
215,193.54675345164458,3.690068206174508E-6,8.2683101508899E-4
216,193.4932827329124,3.7118507545122625E-6,8.305428658435023E-4
217,193.43986648186024,3.7003451938841587E-6,8.342432110373865E-4
218,193.38651255894104,3.670119446920637E-6,8.379133304843072E-4
219,193.33283930918455,3.6478863650174923E-6,8.415612168493246E-4
220,193.27912658153866,3.6801329209870332E-6,8.452413497703116E-4
221,193.22511112887037,3.6868399209823155E-6,8.489281896912939E-4
222,193.17103679065855,3.7079817294066944E-6,8.526361714207006E-4
223,193.11648822538692,3.674822795071711E-6,8.563109942157723E-4
224,193.06141338711177,3.7389847597314125E-6,8.600499789755037E-4
225,193.00607462591884,3.677003135216131E-6,8.637269821107199E-4
226,192.95044695322548,3.6849521080042942E-6,8.674119342187242E-4
227,192.8943596324613,3.7049058284460525E-6,8.711168400471703E-4
228,192.83784367226906,3.7043103193163356E-6,8.748211503664866E-4
229,192.78102885524294,3.666101530181234E-6,8.784872518966679E-4
230,192.72416939031325,3.6684528607315068E-6,8.821557047573994E-4
231,192.66798027055515,3.678934734214882E-6,8.858346394916142E-4
232,192.61144909428631,3.653930144536376E-6,8.894885696361507E-4
233,192.5548194830896,3.6418182118044476E-6,8.931303878479552E-4
234,192.49759239995345,3.6059553535275076E-6,8.967363432014826E-4
235,192.43981878205537,3.6173404738220893E-6,9.003536836753047E-4
236,192.38193220555905,3.612986908232946E-6,9.039666705835377E-4
237,192.3237769203225,3.6132236881754484E-6,9.075798942717132E-4
238,192.26540382465907,3.6528415278159447E-6,9.11232735799529E-4
239,192.2072504058906,3.707435848232355E-6,9.149401716477614E-4
240,192.14868357350474,3.7111025145168798E-6,9.186512741622782E-4
241,192.09025818452295,3.710907106417472E-6,9.223621812686957E-4
242,192.03131520143188,3.7417324461383623E-6,9.261039137148341E-4
243,191.97199417713261,3.7357144018375514E-6,9.298396281166716E-4
244,191.91299365914097,3.7190841605205024E-6,9.335587122771921E-4
245,191.85375078811376,3.7197305964800603E-6,9.372784428736721E-4
246,191.7940914701094,3.723296539630384E-6,9.410017394133025E-4
247,191.73538148060808,3.7336168730154167E-6,9.44735356286318E-4
248,191.67662711725674,3.705919467202152E-6,9.484412757535201E-4
249,191.61750386983294,3.6397712615553712E-6,9.520810470150754E-4
250,191.55812035279993,3.6665002661266364E-6,9.557475472812021E-4
251,191.49858064736395,3.6200077319011696E-6,9.593675550131032E-4
252,191.43890905826177,3.6301702575745573E-6,9.629977252706778E-4
253,191.3795279916308,3.642340821557771E-6,9.666400660922356E-4
254,191.3199818058946,3.619518073816015E-6,9.702595841660516E-4
255,191.2604660216092,3.626628674194183E-6,9.738862128402457E-4
256,191.200315656326,3.6559963161895583E-6,9.775422091564353E-4
257,191.1402257352922,3.6609438555111445E-6,9.812031530119464E-4
258,191.08026851943146,3.6619468601159543E-6,9.848650998720624E-4
259,191.02043983809364,3.6427500033007146E-6,9.88507849875363E-4
260,190.9609202787141,3.6825336520218704E-6,9.92190383527385E-4
261,190.9001509344392,3.656063297888705E-6,9.958464468252737E-4
262,190.83963732671813,3.662551763578706E-6,9.995089985888523E-4
263,190.77863374689252,3.700572583854932E-6,0.0010032095711727074
264,190.71751372866638,3.683031043497774E-6,0.0010068926022162052
265,190.65697424583357,3.7146439302546976E-6,0.00101060724614646
266,190.59596336503407,3.7368963876702803E-6,0.0010143441425341303
267,190.5347183856553,3.727790599481184E-6,0.0010180719331336113
268,190.47428195314936,3.761171055906942E-6,0.0010218331041895183
269,190.41460439535408,3.7480548900401974E-6,0.0010255811590795586
270,190.35420074009434,3.77033287749989E-6,0.0010293514919570584
271,190.29353356109377,3.717393524131438E-6,0.0010330688854811897
272,190.2324615572669,3.738633949430412E-6,0.00103680751943062
273,190.17071276789977,3.7461980525451114E-6,0.0010405537174831652
274,190.1085175769646,3.739531737011183E-6,0.0010442932492201764
275,190.04648287502965,3.740198486098588E-6,0.001048033447706275
276,189.98429026873083,3.7607061545446595E-6,0.0010517941538608195
277,189.9222090883038,3.770227191921313E-6,0.0010555643810527407
278,189.8610469586847,3.8040797199283692E-6,0.0010593684607726691
279,189.79955256806286,3.7545701965890715E-6,0.0010631230309692582
280,189.73850020291474,3.7682117934767704E-6,0.001066891242762735
281,189.67780964783097,3.7419981053624815E-6,0.0010706332408680975
282,189.61753907569894,3.7395041864883646E-6,0.0010743727450545858
283,189.5563130353291,3.771987199553271E-6,0.0010781447322541391
284,189.49570948049018,3.798360648577098E-6,0.0010819430929027163
285,189.43480876114998,3.790922382969335E-6,0.0010857340152856856
286,189.37359885026746,3.7732065451241022E-6,0.0010895072218308098
287,189.31259810827294,3.7239077690978066E-6,0.0010932311295999075
288,189.2507848334911,3.707524352555103E-6,0.0010969386539524625
289,189.18891699911336,3.7075092640653014E-6,0.0011006461632165278
290,189.12726395377067,3.687121194402759E-6,0.0011043332844109304
291,189.06519478240781,3.6848217510312E-6,0.0011080181061619617
292,189.00300220514146,3.738475969457457E-6,0.0011117565821314192
293,188.93984009567424,3.7554061141464118E-6,0.0011155119882455657
294,188.8762247057216,3.798299343456231E-6,0.001119310287589022
295,188.81196454640573,3.787504188347899E-6,0.0011230977917773698
296,188.7469822845856,3.7680838501437043E-6,0.0011268658756275135
297,188.68194710884077,3.7483240309843233E-6,0.001130614199658498
298,188.6162085073067,3.7320384881371104E-6,0.001134346238146635
299,188.55050976620586,3.736498926956065E-6,0.001138082737073591
300,188.48506058987965,3.692343293899851E-6,0.001141775080367491
301,188.41864954397627,3.6573525768544007E-6,0.0011454324329443454
302,188.35176896608775,3.6559718149512682E-6,0.0011490884047592965
303,188.28558892747154,3.665284848835766E-6,0.0011527536896081324
304,188.2190017187378,3.660957495726406E-6,0.0011564146471038587
305,188.1526033954564,3.668250282842044E-6,0.0011600828973867008
306,188.08569276062335,3.6255524681701245E-6,0.0011637084498548709
307,188.01888614787276,3.6240292444746423E-6,0.0011673324790993456
