#t,ESS,tempDiff,temp
0,999.9999999999848,0.0,0.0
1,999.9899999999977,3.995172461238208E-5,3.995172461238208E-5
2,999.9606406401978,3.95368882122309E-5,7.948861282461298E-5
3,999.9125409044482,3.967517328986174E-5,1.1916378611447471E-4
4,999.8472301650759,3.918994829934225E-5,1.5835373441381697E-4
5,999.7652088907925,3.9381826411646744E-5,1.9773556082546372E-4
6,999.666340113122,3.942732357916449E-5,2.3716288440462822E-4
7,999.5509255171517,4.018697490287746E-5,2.7734985930750566E-4
8,999.4193063972677,4.1067202276239695E-5,3.1841706158374536E-4
9,999.2736125527342,4.1386792086568854E-5,3.598038536703142E-4
10,999.1165667841224,4.047590635420856E-5,4.002797600245227E-4
11,998.9452530093646,4.025052583733802E-5,4.405302858618607E-4
12,998.7603439548305,4.026002922357624E-5,4.8079031508543695E-4
13,998.5637042750317,4.039525703188955E-5,5.211855721173265E-4
14,998.3572309429139,3.994994583391478E-5,5.611355179512413E-4
15,998.1379291366425,3.979862762003005E-5,6.009341455712713E-4
16,997.9070483502704,3.9817569145424456E-5,6.407517147166957E-4
17,997.6637098511574,3.955050159263277E-5,6.803022163093284E-4
18,997.4094129322968,3.981592551999015E-5,7.201181418293186E-4
19,997.1446365986759,4.00923754543798E-5,7.602105172836984E-4
20,996.8685969383884,4.037109207078838E-5,8.005816093544868E-4
21,996.5828323129354,4.0031410614732533E-5,8.406130199692192E-4
22,996.2834803043185,3.943732089122365E-5,8.800503408604429E-4
23,995.9764142453746,3.940873345421432E-5,9.194590743146573E-4
24,995.6629329474158,3.958641723346809E-5,9.590454915481254E-4
25,995.3427938501342,3.93246498349267E-5,9.983701413830521E-4
26,995.0123350070573,3.874118134882636E-5,0.0010371113227318784
27,994.6678484143473,3.947278877785307E-5,0.0010765841115097314
28,994.3159029276056,3.930258730526932E-5,0.0011158866988150006
29,993.9567386223493,3.9812642200555725E-5,0.0011556993410155563
30,993.5834795884901,3.951037197174196E-5,0.0011952097129872984
31,993.1988591521318,3.9335153155108884E-5,0.0012345448661424073
32,992.8076667939131,3.876862643751662E-5,0.001273313492579924
33,992.4056137056949,3.856338920489103E-5,0.001311876881784815
34,991.9993225345039,3.83798310665658E-5,0.001350256712851381
35,991.5849761606213,3.8333533620498436E-5,0.0013885902464718795
36,991.1704761591209,3.831087052572413E-5,0.0014269011169976036
37,990.7478747572804,3.826556847570051E-5,0.0014651666854733042
38,990.3121109877334,3.824666708479886E-5,0.001503413352558103
39,989.8760144076307,3.8349692117814966E-5,0.001541763044675918
40,989.4317137851883,3.825224957701811E-5,0.001580015294252936
41,988.9785643332984,3.83941595981839E-5,0.0016184094538511198
42,988.5130972694961,3.8411157192773685E-5,0.0016568206110438935
43,988.0418770549759,3.865732668668252E-5,0.001695477937730576
44,987.5606180214932,3.833251137393366E-5,0.0017338104491045098
45,987.0703829539754,3.8398492004034126E-5,0.001772208941108544
46,986.5726609333572,3.90974848993497E-5,0.0018113064260078936
47,986.0675627672828,3.882157524369834E-5,0.0018501280012515919
48,985.5570595491071,3.8507132918741425E-5,0.0018886351341703333
49,985.0429438487308,3.84906872197176E-5,0.0019271258213900508
50,984.522206507044,3.828791682551213E-5,0.001965413738215563
51,984.0007311178168,3.8181828538184796E-5,0.0020035955667537476
52,983.4721424366343,3.8295027377938626E-5,0.0020418905941316863
53,982.9371147581736,3.81625905688823E-5,0.0020800531847005688
54,982.3949069038043,3.768133660065925E-5,0.002117734521301228
55,981.8354428129853,3.7587736746853884E-5,0.002155322258048082
56,981.2732930157454,3.859875314681518E-5,0.002193921011194897
57,980.7149525220528,3.8888219255274714E-5,0.002232809230450172
58,980.155341749693,3.91558217439275E-5,0.0022719650521940997
59,979.5887911190187,3.885813205584411E-5,0.002310823184249944
60,979.0222473212569,3.874947366821378E-5,0.0023495726579181577
61,978.4483217789258,3.858202297734483E-5,0.0023881546808955027
62,977.8835683885221,3.867409497444017E-5,0.0024268287758699427
63,977.3108231412106,3.852275159409376E-5,0.0024653515274640366
64,976.7361618373938,3.880163950400146E-5,0.002504153166968038
65,976.1592953218922,3.826748040290551E-5,0.002542420647370944
66,975.5793978002993,3.8530178426233714E-5,0.0025809508257971774
67,974.9986051513357,3.8308022345554626E-5,0.002619258848142732
68,974.4250579448209,3.823657301182425E-5,0.0026574954211545563
69,973.8406351514586,3.8892017256930686E-5,0.002696387438411487
70,973.2515375202692,3.9031586151094987E-5,0.002735419024562582
71,972.6583414065508,3.893053048751349E-5,0.0027743495550500955
72,972.0725366516722,3.8944042455694476E-5,0.0028132935975057898
73,971.4842099305157,3.913839293642602E-5,0.002852431990442216
74,970.8900206492606,3.898974009418598E-5,0.002891421730536402
75,970.2919300734789,3.922852015278257E-5,0.0029306502506891846
76,969.6997494458991,3.922484063096692E-5,0.0029698750913201514
77,969.096866577124,3.972331054407745E-5,0.003009598401864229
78,968.4973319671806,3.9849488446008545E-5,0.0030494478903102377
79,967.8995421299652,3.997948623708743E-5,0.003089427376547325
80,967.2966343668606,3.9743609593287526E-5,0.0031291709861406124
81,966.6827862463814,3.930954153914684E-5,0.0031684805276797593
82,966.0673856877157,3.9161405118296094E-5,0.003207641932798055
83,965.4454711690065,3.891388660534108E-5,0.003246555819403396
84,964.8086028636556,3.925636685775625E-5,0.0032858121862611523
85,964.1663116628368,3.8926164836388096E-5,0.00332473835109754
86,963.5148717986629,3.872184814529192E-5,0.0033634601992428323
87,962.8747169712968,3.925060299042183E-5,0.003402710802233254
88,962.233724509272,3.927245994597052E-5,0.0034419832621792245
89,961.5835210220034,3.998590020349508E-5,0.00348196916238272
90,960.9251013736402,3.993918865322344E-5,0.003521908351035943
91,960.2681039827604,3.9968476735099E-5,0.003561876827771042
92,959.5982692076861,3.977076631618232E-5,0.003601647594087224
93,958.9395576048018,3.9885639445261513E-5,0.0036415332335324856
94,958.28479353384,4.040685504969695E-5,0.0036819400885821827
95,957.64368097963,4.0218667267409946E-5,0.0037221587558495927
96,957.0152420020362,4.042963909186595E-5,0.0037625883949414587
97,956.3694172369552,4.0210310068975185E-5,0.0038027987050104337
98,955.73954304196,4.020855589075874E-5,0.0038430072609011924
99,955.1006763954331,4.042300905873907E-5,0.0038834302699599314
100,954.4602570042352,4.010700884604243E-5,0.0039235372788059735
101,953.8160346975366,4.023370831871126E-5,0.003963770987124685
102,953.1792087457998,4.02152902515243E-5,0.004003986277376209
103,952.5511534007754,3.938472736586198E-5,0.004043371004742071
104,951.9198628618067,3.941436508124137E-5,0.004082785369823312
105,951.2673459255464,3.914555893881567E-5,0.004121930928762127
106,950.5922302567354,3.892535346793929E-5,0.004160856282230067
107,949.9274371661388,3.882221615819392E-5,0.0041996784983882604
108,949.257793164153,3.8929137685394207E-5,0.004238607636073655
109,948.5888860603756,3.864718258340184E-5,0.0042772548186570565
110,947.927021639207,3.89397021252986E-5,0.004316194520782355
111,947.2713263063337,3.935909850485688E-5,0.0043555536192872125
112,946.6179411147652,3.943848038188583E-5,0.004394992099669098
113,945.9423138163094,3.925700083073122E-5,0.004434249100499829
114,945.2686209978069,3.985134042470928E-5,0.004474100440924538
115,944.5946335154545,3.977122226500355E-5,0.0045138716631895415
116,943.9223429094188,3.9704291441008606E-5,0.00455357595463055
117,943.2448630709914,3.9834967675536155E-5,0.004593410922306086
118,942.5983246755957,3.984752114503714E-5,0.0046332584434511225
119,941.941847546035,4.021845935383545E-5,0.004673476902804958
120,941.2882273478067,4.018186532768572E-5,0.004713658768132643
121,940.6260319414506,4.003905868477669E-5,0.00475369782681742
122,939.9689661019003,4.044235262491236E-5,0.004794140179442333
123,939.3029838247168,4.120181679748898E-5,0.004835341996239822
124,938.6489585140032,4.114012262877475E-5,0.004876482118868597
125,937.965351494762,4.0394715480442653E-5,0.004916876834349039
126,937.2727745787561,4.03837175687664E-5,0.0049572605519178055
127,936.5670179613679,4.099552322040167E-5,0.004998256075138207
128,935.8542023422389,4.039743949124162E-5,0.005038653514629448
129,935.140972051794,4.016920956122134E-5,0.0050788227241906694
130,934.4226165645758,4.061231767395885E-5,0.005119435041864628
131,933.7157764356917,4.066652247645436E-5,0.005160101564341083
132,933.0159216439607,4.0295654631891493E-5,0.005200397218972974
133,932.3273650860191,4.035800793108162E-5,0.005240755226904056
134,931.6260716502687,4.0398234971819496E-5,0.0052811534618758755
135,930.9523942019488,4.0515334265650486E-5,0.005321668796141526
136,930.2863613689715,4.071316220444407E-5,0.00536238195834597
137,929.6263188202166,4.073182418796166E-5,0.005403113782533931
138,928.9792647867248,4.0788795986719046E-5,0.00544390257852065
139,928.322721832236,4.106721326163733E-5,0.005484969791782287
140,927.6777895839557,4.094953424348038E-5,0.005525919326025768
141,927.024413266257,4.04975961720161E-5,0.005566416922197784
142,926.3608626423156,4.032366021265431E-5,0.005606740582410438
143,925.6958721362886,4.04228766461057E-5,0.005647163459056544
144,925.0354859037553,4.0473244077502665E-5,0.005687636703134047
145,924.3915462427929,4.0578525370357255E-5,0.005728215228504404
146,923.752693875828,4.004645839554438E-5,0.005768261686899949
147,923.1099397441167,4.013087401871229E-5,0.005808392560918661
148,922.4686169719935,4.029472753116325E-5,0.005848687288449825
149,921.8227438338417,4.001748419433654E-5,0.005888704772644161
150,921.1687323361166,3.9863635255821024E-5,0.005928568407899982
151,920.4933296836218,3.967670546775932E-5,0.005968245113367742
152,919.8045304612135,3.9844649524675906E-5,0.006008089762892418
153,919.0983840638297,3.9364269116375504E-5,0.006047454032008793
154,918.4114679285263,3.9296493748243725E-5,0.006086750525757037
155,917.7272573119752,3.918846357489905E-5,0.006125938989331936
156,917.0234212171891,3.971241272725036E-5,0.006165651402059187
157,916.308333051864,4.0056823403495056E-5,0.006205708225462681
158,915.5838245502966,3.942554466329976E-5,0.006245133770125981
159,914.8437973983538,3.9807820567584435E-5,0.006284941590693566
160,914.1163488219532,3.999876496909023E-5,0.006324940355662656
161,913.4032072275161,3.9815072868803E-5,0.006364755428531459
162,912.6934584746303,3.961518563291527E-5,0.006404370614164374
163,911.9683650748086,3.9537430095477216E-5,0.006443908044259852
164,911.2410990681187,3.97770948384564E-5,0.006483685139098308
165,910.489160784311,3.986256849982242E-5,0.0065235477075981305
166,909.7669005350089,4.053980230823796E-5,0.0065640875099063686
167,909.0413857770831,4.0483715066619474E-5,0.006604571224972988
168,908.3274188502953,4.044712549136843E-5,0.006645018350464356
169,907.6268668585277,4.0427755064729265E-5,0.006685446105529086
170,906.9219004042045,4.025686306087914E-5,0.006725702968589965
171,906.2205822874014,4.054932722063364E-5,0.006766252295810599
172,905.543969190673,4.02805831438247E-5,0.006806532878954424
173,904.8420830910211,4.009764839012909E-5,0.006846630527344553
174,904.1255588816522,3.995108717948518E-5,0.006886581614524038
175,903.4133239775772,3.954035316835778E-5,0.006926121967692395
176,902.6955474133451,3.9559207806591486E-5,0.0069656811754989865
177,901.9550920071003,3.941129255283375E-5,0.0070050924680518205
178,901.2439507479764,3.953909284217136E-5,0.007044631560893992
179,900.5343779799578,3.949361742768523E-5,0.007084125178321677
180,899.8470796310902,3.9133284139408806E-5,0.007123258462461085
181,899.145920432081,3.946388314603942E-5,0.007162722345607125
182,898.425368968473,3.888712421892673E-5,0.007201609469826052
183,897.716065757453,3.947663962888153E-5,0.007241086109454933
184,896.9852462968643,3.930016331350882E-5,0.007280386272768441
185,896.2690002025457,3.911816094221735E-5,0.007319504433710659
186,895.546511720412,3.9145531609986696E-5,0.0073586499653206456
187,894.823602273762,3.93514646102912E-5,0.007398001429930937
188,894.0878372010187,3.940657562351992E-5,0.007437408005554457
189,893.3538082277995,3.9020079907737364E-5,0.007476428085462194
190,892.6177241822858,3.90160737376575E-5,0.007515444159199852
191,891.8862213565606,3.9089733277860075E-5,0.007554533892477712
192,891.1655842545382,3.8896600108633896E-5,0.007593430492586346
193,890.4147948687108,3.8761916651893195E-5,0.007632192409238239
194,889.6687646336709,3.8697447817663715E-5,0.007670889857055903
195,888.9260811705672,3.881809009314815E-5,0.007709707947149052
196,888.1785701108089,3.907634420225293E-5,0.007748784291351304
197,887.4581567414795,3.932125595415864E-5,0.007788105547305463
198,886.7606008331035,3.967785156226179E-5,0.007827783398867725
199,886.0595128367505,3.945136132292954E-5,0.007867234760190654
200,885.3447856946998,3.9327448932762795E-5,0.007906562209123417
201,884.6073496924299,3.9969262298928335E-5,0.007946531471422345
202,883.8646879290468,3.9971304693284235E-5,0.00798650277611563
203,883.1173508329488,3.9764994506452675E-5,0.008026267770622082
204,882.3777827058938,4.020002734168952E-5,0.008066467797963772
205,881.6166367498063,4.041004648896123E-5,0.008106877844452734
206,880.8546943010483,4.039564764531169E-5,0.008147273492098045
207,880.0965053418812,4.0204266333574074E-5,0.008187477758431618
208,879.3280539994369,4.025742459641298E-5,0.008227735183028032
209,878.5333133236832,4.035171621317002E-5,0.008268086899241201
210,877.7462840037566,4.066550777274237E-5,0.008308752407013944
211,876.9517822769259,4.0490194242181625E-5,0.008349242601256126
212,876.1769167327967,4.0642183664419504E-5,0.008389884784920545
213,875.4226136996456,4.08686783751632E-5,0.008430753463295708
214,874.6818074624612,4.064714389050203E-5,0.00847140060718621
215,873.9553305025521,4.086491748780672E-5,0.008512265524674016
216,873.2330852814574,4.00750442782842E-5,0.0085523405689523
217,872.5182082289048,3.998095319166019E-5,0.00859232152214396
218,871.8166430571862,4.003015246610951E-5,0.008632351674610069
219,871.0852524297442,4.019860897822726E-5,0.008672550283588296
220,870.3721547564838,3.9929419164578464E-5,0.008712479702752875
221,869.6644795361716,4.036486650970091E-5,0.008752844569262576
222,868.97210694358,4.0349200276187225E-5,0.008793193769538762
223,868.2795734755827,4.000723019491143E-5,0.008833200999733674
224,867.6008194248518,3.996344437836617E-5,0.00887316444411204
225,866.9467206051639,4.025095677067051E-5,0.00891341540088271
226,866.3011486319103,4.0414004053511714E-5,0.008953829404936222
227,865.6399749050629,4.000309975210019E-5,0.008993832504688323
228,864.9549459817374,3.987385753945514E-5,0.009033706362227778
229,864.2723362306475,4.006509506742035E-5,0.009073771457295198
230,863.6002590475599,3.960651038684128E-5,0.00911337796768204
231,862.9226455107504,3.964206347528327E-5,0.009153020031157323
232,862.2642678416898,3.991169620136803E-5,0.00919293172735869
233,861.6137828096806,3.904090446446153E-5,0.009231972631823153
234,860.9541857013884,3.874727106553149E-5,0.009270719902888684
235,860.3128050861026,3.887338791967602E-5,0.00930959329080836
236,859.6838496568428,3.898781625389074E-5,0.00934858110706225
237,859.0648875407994,3.861022264893523E-5,0.009387191329711185
238,858.4358056741871,3.886729150667067E-5,0.009426058621217856
239,857.7934950426663,3.916182335112968E-5,0.009465220444568986
240,857.1368000022918,3.929633261275808E-5,0.009504516777181744
241,856.4877937205138,3.9627694325409415E-5,0.009544144471507154
242,855.8384223630786,3.9306454522832863E-5,0.009583450926029987
243,855.1970972566669,3.977163823355697E-5,0.009623222564263545
244,854.5465597962337,3.98386730525211E-5,0.009663061237316065
245,853.8827667993203,3.972238583235394E-5,0.00970278362314842
246,853.2272971453704,3.953874741683451E-5,0.009742322370565253
247,852.5888619048017,3.9247063192602205E-5,0.009781569433757855
248,851.9431633681876,3.958320404105132E-5,0.009821152637798905
249,851.2765365155493,4.0134119891445634E-5,0.009861286757690352
250,850.588776747938,4.024761925127604E-5,0.009901534376941627
251,849.8350995906445,3.9891871282729234E-5,0.009941426248224356
252,849.0602460033418,4.0411852889069275E-5,0.009981838101113425
253,848.2900804045096,4.072158184546081E-5,0.010022559682958886
254,847.5208327546106,4.082106530093717E-5,0.010063380748259822
255,846.7625926078051,4.077733612949469E-5,0.010104158084389317
256,846.005798613642,4.106595171624724E-5,0.010145224036105564
257,845.2439337623448,4.136331229958044E-5,0.010186587348405145
258,844.5151017886192,4.095037800631545E-5,0.01022753772641146
259,843.8026933775332,4.072596773819786E-5,0.010268263694149658
260,843.0996851575213,4.073579750802976E-5,0.010308999491657688
261,842.3964845974803,4.0129096825798466E-5,0.010349128588483487
262,841.6937362738466,4.040310017605734E-5,0.010389531688659545
263,840.9808900766784,4.012015662260883E-5,0.010429651845282153
264,840.2533356295639,4.0268200574133184E-5,0.010469920045856286
265,839.5306460662777,4.0066404723769525E-5,0.010509986450580057
266,838.786633922295,4.040254382652826E-5,0.010550388994406586
267,838.033958937225,4.086370515384302E-5,0.01059125269956043
268,837.3205906506199,4.078318126992954E-5,0.010632035880830358
269,836.613004183547,4.074260740475583E-5,0.010672778488235115
270,835.9478184921179,4.013079911000069E-5,0.010712909287345116
271,835.2980397854471,3.9251279350765516E-5,0.010752160566695881
272,834.6424192391769,3.958724333437813E-5,0.010791747810030259
273,833.9785836203571,3.97730452536848E-5,0.010831520855283943
274,833.3104047061289,3.9727416861659816E-5,0.010871248272145603
275,832.6257946125093,4.0244613093664036E-5,0.010911492885239267
276,831.9288227740391,3.975470288058777E-5,0.010951247588119856
277,831.2486736467458,3.985171466754928E-5,0.010991099302787405
278,830.555623630123,3.9685242462000507E-5,0.011030784545249406
279,829.8706413947522,4.026218656080021E-5,0.011071046731810207
280,829.1868714984944,4.031701974156596E-5,0.011111363751551773
281,828.5515947661344,4.0209791390362206E-5,0.011151573542942135
282,827.9320888469385,3.995470141956633E-5,0.011191528244361702
283,827.3217344803946,4.0146865168792976E-5,0.011231675109530496
284,826.7000871119167,4.0226674479159336E-5,0.011271901784009655
285,826.0681706090271,4.066499933234283E-5,0.011312566783341998
286,825.4295104369805,4.029735292053889E-5,0.011352864136262537
287,824.7760668967312,4.0295019483164254E-5,0.011393159155745701
288,824.1019395381801,4.0284386309241556E-5,0.011433443542054942
289,823.4633243957394,4.023393269019407E-5,0.011473677474745137
290,822.8177549105361,4.0239523645170254E-5,0.011513916998390307
291,822.1678616919475,4.066295711689901E-5,0.011554579955507205
292,821.509420615009,4.0831000557564936E-5,0.01159541095606477
293,820.8685451067363,4.0091002641587774E-5,0.011635501958706357
294,820.2700946614433,4.045424125502681E-5,0.011675956199961384
295,819.67778045085,4.068513106832036E-5,0.011716641331029704
296,819.1218627292292,4.076513828938834E-5,0.011757406469319092
297,818.5478305305413,4.0672828469646665E-5,0.01179807929778874
298,817.9760332617415,4.064650066598134E-5,0.01183872579845472
299,817.3738830106238,4.1147365794173784E-5,0.011879873164248895
300,816.7695763940515,4.133474774271711E-5,0.011921207911991612
301,816.1367703772214,4.161328509988142E-5,0.011962821197091493
302,815.4689689226495,4.0932871190065225E-5,0.012003754068281558
303,814.7708104269767,4.0766462568299754E-5,0.012044520530849857
304,814.0558441582319,4.056707698595627E-5,0.012085087607835812
305,813.3536578385798,4.050439096849218E-5,0.012125591998804305
306,812.6659739954174,4.0346131160198645E-5,0.012165938129964504
307,811.9440138122162,3.9812577001493044E-5,0.012205750706965997
308,811.2001518778305,4.0374891531089814E-5,0.012246125598497087
309,810.4500229214811,3.991774357529474E-5,0.012286043342072383
310,809.7138937369299,3.991273710102087E-5,0.012325956079173403
311,808.9763905536081,3.9576980221042026E-5,0.012365533059394446
312,808.2526072670365,3.9691237267486186E-5,0.012405224296661932
