#t,ESS,tempDiff,temp
0,200.00000000000065,0.0,0.0
1,199.99975152992982,6.0343100328106655E-6,6.0343100328106655E-6
2,199.9990114376105,6.005324811780279E-6,1.2039634844590945E-5
3,199.99776581153338,6.064891633275926E-6,1.810452647786687E-5
4,199.99601214440247,6.073930074976188E-6,2.417845655284306E-5
5,199.99373907323812,6.122269678502729E-6,3.0300726231345786E-5
6,199.99092674134846,6.158851227043668E-6,3.645957745838945E-5
7,199.9876155000472,6.193504853973418E-6,4.265308231236287E-5
8,199.9838293282441,6.214543507811345E-6,4.886762582017422E-5
9,199.97951377494627,6.207350627485529E-6,5.507497644765975E-5
10,199.97465657481925,6.205906534978737E-6,6.128088298263849E-5
11,199.96926095175894,6.132320572742793E-6,6.741320355538128E-5
12,199.9632580225131,6.155021283269983E-6,7.356822483865126E-5
13,199.9567806604582,6.113922740387195E-6,7.968214757903845E-5
14,199.94969647603423,6.1572440437514934E-6,8.583939162278995E-5
15,199.9421924296077,6.0606689634698335E-6,9.190006058625978E-5
16,199.93433746692767,5.9210941749853545E-6,9.782115476124513E-5
17,199.9258860161795,5.9231684642178715E-6,1.03744323225463E-4
18,199.9171658520575,5.884426429129244E-6,1.0962874965459224E-4
19,199.90785785625116,5.950459537989626E-6,1.1557920919258186E-4
20,199.89816767682072,5.8546186281574076E-6,1.2143382782073927E-4
21,199.8880616467127,5.8746477083234636E-6,1.2730847552906274E-4
22,199.8775303646573,5.823904080447935E-6,1.3313237960951068E-4
23,199.86650239826994,5.770882537316479E-6,1.3890326214682715E-4
24,199.85513790042947,5.7825782531929856E-6,1.4468584040002014E-4
25,199.84319486115749,5.8518750178165585E-6,1.505377154178367E-4
26,199.83068192704056,5.9286836957027455E-6,1.5646639911353943E-4
27,199.81763312059175,5.999744059141516E-6,1.6246614317268096E-4
28,199.80414925382888,5.966921244061895E-6,1.6843306441674286E-4
29,199.78995928756098,6.027204626631935E-6,1.744602690433748E-4
30,199.77511891140531,6.0538228613700486E-6,1.8051409190474485E-4
31,199.76025871569524,5.901287734112686E-6,1.8641537963885754E-4
32,199.74476886360196,5.952882695314006E-6,1.9236826233417156E-4
33,199.72876700261793,5.952168252598933E-6,1.983204305867705E-4
34,199.7124400629588,5.907563068020234E-6,2.042279936547907E-4
35,199.69570087645874,5.879328449009086E-6,2.101073221037998E-4
36,199.67855175894226,5.809100886976339E-6,2.1591642299077614E-4
37,199.66122683475504,5.748187902395197E-6,2.2166461089317133E-4
38,199.64335400484518,5.8075955981234944E-6,2.2747220649129481E-4
39,199.62529358486458,5.7419447485860605E-6,2.3321415123988087E-4
40,199.60684083103894,5.760528978879378E-6,2.3897468021876026E-4
41,199.5880692312624,5.785303568816126E-6,2.447599837875764E-4
42,199.56886352731715,5.810396708593126E-6,2.5057038049616955E-4
43,199.5493693346925,5.792478070877815E-6,2.5636285856704737E-4
44,199.5297175516098,5.7557609999962044E-6,2.621186195670436E-4
45,199.50990371966176,5.6677635201477064E-6,2.677863830871913E-4
46,199.4894947572829,5.64192708838643E-6,2.7342831017557775E-4
47,199.468944126227,5.603234099971967E-6,2.790315442755497E-4
48,199.44795917207864,5.636019466701054E-6,2.8466756374225075E-4
49,199.42680012443114,5.672683258558397E-6,2.9034024700080917E-4
50,199.40513408873204,5.6669419076119665E-6,2.960071889084211E-4
51,199.3833203827862,5.652109600590545E-6,3.016592985090117E-4
52,199.36106044307414,5.628034079864235E-6,3.0728733258887593E-4
53,199.33832007650497,5.596827327965782E-6,3.128841599168417E-4
54,199.3154560913655,5.568980619737821E-6,3.184531405365795E-4
55,199.29183932623235,5.581413467533144E-6,3.2403455400411267E-4
56,199.26784267834972,5.563671460345521E-6,3.295982254644582E-4
57,199.24370079543567,5.547803955775484E-6,3.351460294202337E-4
58,199.2196318057496,5.481402218663784E-6,3.406274316388975E-4
59,199.19515675087163,5.51943240870701E-6,3.461468640476045E-4
60,199.16981292431072,5.581821076605005E-6,3.5172868512420947E-4
61,199.14451060655466,5.542224959587334E-6,3.572709100837968E-4
62,199.11896898739528,5.5295868487204186E-6,3.6280049693251725E-4
63,199.09315156493045,5.5088476111753855E-6,3.6830934454369266E-4
64,199.06729053691456,5.456921366176091E-6,3.7376626590986876E-4
65,199.0410729093408,5.450019666039488E-6,3.792162855759082E-4
66,199.01435136709682,5.449274891693143E-6,3.846655604676014E-4
67,198.98654015857272,5.504980780771198E-6,3.901705412483726E-4
68,198.95836746111686,5.503368845182475E-6,3.956739100935551E-4
69,198.92937427560034,5.507287247564134E-6,4.011811973411192E-4
70,198.89972500215043,5.528973559091163E-6,4.067101709002104E-4
71,198.87007577029144,5.523408260717218E-6,4.122335791609276E-4
72,198.8397731380423,5.558650578235984E-6,4.177922297391636E-4
73,198.80932783194726,5.540866214787449E-6,4.233330959539511E-4
74,198.7783927343066,5.548617434864038E-6,4.2888171338881513E-4
75,198.74661346462324,5.52993903256941E-6,4.3441165242138455E-4
76,198.7141434528484,5.581979152843762E-6,4.399936315742283E-4
77,198.68108853419014,5.6148396059448775E-6,4.4560847118017317E-4
78,198.6473091411973,5.642763600499353E-6,4.512512347806725E-4
79,198.61343851953382,5.64808458310786E-6,4.5689931936378035E-4
80,198.57898595719263,5.679909777897754E-6,4.625792291416781E-4
81,198.5442463841848,5.6978746137427296E-6,4.6827710375542083E-4
82,198.50916422917066,5.714540280632817E-6,4.7399164403605365E-4
83,198.47461195963473,5.663993971434353E-6,4.79655638007488E-4
84,198.4394388559726,5.694637676864967E-6,4.8535027568435296E-4
85,198.40402567661386,5.68548992614786E-6,4.910357656105008E-4
86,198.36815473931324,5.700739252852684E-6,4.967365048633535E-4
87,198.33172505113458,5.735217831150158E-6,5.024717226945036E-4
88,198.29497176591516,5.686661065287203E-6,5.081583837597909E-4
89,198.25769172723125,5.678245680891184E-6,5.13836629440682E-4
90,198.21977828878406,5.656319817360319E-6,5.194929492580424E-4
91,198.1809375814258,5.736968324735563E-6,5.25229917582778E-4
92,198.1411514432851,5.758181457301289E-6,5.309880990400792E-4
93,198.10091501229692,5.777297368563713E-6,5.367653964086429E-4
94,198.06014176406563,5.836019259392425E-6,5.426014156680353E-4
95,198.01887486675446,5.890914930547983E-6,5.484923305985834E-4
96,197.97673378570857,5.885493067071826E-6,5.543778236656552E-4
97,197.93440966929163,5.890388729627921E-6,5.602682123952832E-4
98,197.89171334828788,5.935863934510791E-6,5.66204076329794E-4
99,197.8479134110174,5.984372744317647E-6,5.721884490741116E-4
100,197.80332791746724,5.995852132432786E-6,5.781843012065444E-4
101,197.75767397149343,6.025105853235264E-6,5.842094070597797E-4
102,197.71178337281006,6.026238705661503E-6,5.902356457654412E-4
103,197.6653373188794,5.966879925688668E-6,5.962025256911298E-4
104,197.61899770643572,5.935852366226156E-6,6.02138378057356E-4
105,197.57153662059406,5.9864756745837106E-6,6.081248537319398E-4
106,197.5230519127508,6.09221989383813E-6,6.142170736257779E-4
107,197.4741395628461,6.152695345479522E-6,6.203697689712574E-4
108,197.42388880958427,6.211049970180286E-6,6.265808189414377E-4
109,197.37415718641915,6.176039481957654E-6,6.327568584233954E-4
110,197.3245884712952,6.132527802105718E-6,6.38889386225501E-4
111,197.27475725117188,6.103324066720252E-6,6.449927102922212E-4
112,197.2246141904893,6.083430928810828E-6,6.51076141221032E-4
113,197.17401245091847,6.082861081551184E-6,6.571590023025832E-4
114,197.12334262113717,6.03245238743612E-6,6.631914546900193E-4
115,197.07173082149575,6.057871721179569E-6,6.692493264111989E-4
116,197.02058288869952,6.040703172724423E-6,6.752900295839233E-4
117,196.9690113899852,6.050390794045486E-6,6.813404203779688E-4
118,196.91619813025105,6.056124379142362E-6,6.873965447571111E-4
119,196.8630612604154,6.09546629473686E-6,6.93492011051848E-4
120,196.80947285874217,6.118807053179839E-6,6.996108181050279E-4
121,196.75591135578492,6.099384422980519E-6,7.057102025280084E-4
122,196.7028207119362,6.02666728298578E-6,7.117368698109942E-4
123,196.64892497149467,6.0567933308099265E-6,7.177936631418042E-4
124,196.59564099926789,6.067457888035414E-6,7.238611210298396E-4
125,196.5426684982965,6.024094831824198E-6,7.298852158616638E-4
126,196.48864653299628,6.074064285052101E-6,7.359592801467159E-4
127,196.43537985720778,6.0090375982342535E-6,7.419683177449502E-4
128,196.3806982633992,6.0909900339664175E-6,7.480593077789166E-4
129,196.32601013652334,6.064653888298247E-6,7.541239616672149E-4
130,196.272149365571,6.055954061778977E-6,7.601799157289939E-4
131,196.21784437471885,6.1115209190578405E-6,7.662914366480517E-4
132,196.1634263353787,6.133704449043166E-6,7.724251410970948E-4
133,196.1093264142266,6.183844440369349E-6,7.786089855374642E-4
134,196.05559729899497,6.073551113992074E-6,7.846825366514563E-4
135,196.00070593045137,6.04733187478281E-6,7.907298685262391E-4
136,195.94652233128505,6.001331291480544E-6,7.967311998177196E-4
137,195.89175762119612,6.012573762749197E-6,8.027437735804689E-4
138,195.83774855829517,5.9369538355560615E-6,8.086807274160249E-4
139,195.78233453630202,5.9453727544394796E-6,8.146261001704643E-4
140,195.72606256749418,5.941140178266463E-6,8.205672403487307E-4
141,195.66963116134002,5.95030986400347E-6,8.265175502127342E-4
142,195.61251531819,6.0520664292922096E-6,8.325696166420264E-4
143,195.55528159907996,6.074515158184957E-6,8.386441318002114E-4
144,195.49773439331514,6.024527240044507E-6,8.446686590402559E-4
145,195.43971138761833,6.063312618828781E-6,8.507319716590847E-4
146,195.3813494049947,6.07575280964448E-6,8.568077244687292E-4
147,195.32258831747052,6.150266431093907E-6,8.62957990899823E-4
148,195.26340556276534,6.214034870812545E-6,8.691720257706356E-4
149,195.20313284679307,6.2724542095152365E-6,8.754444799801509E-4
150,195.14382885312747,6.160952482781041E-6,8.816054324629319E-4
151,195.0854601491987,6.096035913488011E-6,8.8770146837642E-4
152,195.0248465133899,6.116911297681186E-6,8.938183796741012E-4
153,194.96527709711424,6.080739006932685E-6,8.998991186810339E-4
154,194.9069832891543,6.038857759408211E-6,9.059379764404421E-4
155,194.84927320401076,5.992201277574831E-6,9.119301777180169E-4
156,194.79080045571726,6.020791420168895E-6,9.179509691381858E-4
157,194.73217344215132,6.0076973454583804E-6,9.239586664836441E-4
158,194.67283461125243,6.01753340241038E-6,9.299761998860544E-4
159,194.61445499039337,6.0045700339324716E-6,9.359807699199869E-4
160,194.55532657751567,6.042661934086162E-6,9.420234318540731E-4
161,194.49490467986922,6.071581439267991E-6,9.480950132933411E-4
162,194.43434885620633,6.007789157589457E-6,9.541028024509305E-4
163,194.3743674151456,5.969337547102985E-6,9.600721399980335E-4
164,194.3142280627737,5.924685229284504E-6,9.65996825227318E-4
165,194.2540293432744,5.9245534479973264E-6,9.719213786753153E-4
166,194.19255829745663,5.951445513028934E-6,9.778728241883442E-4
167,194.13118526813008,5.978937340856374E-6,9.838517615292006E-4
168,194.07057425861305,5.925048288571202E-6,9.897768098177718E-4
169,194.00908857559241,5.895780889656829E-6,9.956725907074287E-4
170,193.94686490156843,5.950958532705451E-6,0.0010016235492401342
171,193.88409577728,5.95588261603986E-6,0.001007579431856174
172,193.82089973570393,5.958021018679375E-6,0.0010135374528748534
173,193.75706490283358,5.971928464235762E-6,0.0010195093813390893
174,193.69250897393053,5.9587951592297885E-6,0.001025468176498319
175,193.62844164467734,5.960025173737633E-6,0.0010314282016720567
176,193.56261496575334,6.020188914626186E-6,0.0010374483905866828
177,193.49642013406924,6.04982647957601E-6,0.0010434982170662588
178,193.43052844707307,6.050593133106663E-6,0.0010495488101993655
179,193.36539019803578,6.012387483245605E-6,0.0010555611976826112
180,193.29948012528556,6.016326758501873E-6,0.0010615775244411131
181,193.2346730787952,5.886169168077421E-6,0.0010674636936091905
182,193.1691523607575,5.8609928804981256E-6,0.0010733246864896887
183,193.10633239248955,5.699384372566395E-6,0.0010790240708622551
184,193.04383474678457,5.707542545156336E-6,0.0010847316134074115
185,192.98047913076022,5.703866641461935E-6,0.0010904354800488733
186,192.9174134196311,5.660947753977579E-6,0.0010960964278028508
187,192.85368194941108,5.694885011820639E-6,0.0011017913128146715
188,192.7892291046209,5.742640873734827E-6,0.0011075339536884064
189,192.72461108770457,5.715058714671467E-6,0.0011132490124030779
190,192.6592268230175,5.773964175179937E-6,0.0011190229765782578
191,192.5925080082645,5.827292933587021E-6,0.0011248502695118449
192,192.52483317773084,5.8569814090527225E-6,0.0011307072509208977
193,192.45764162626062,5.829345767293576E-6,0.0011365365966881913
194,192.39149406683035,5.752990379308574E-6,0.0011422895870675
195,192.32530213829637,5.774483443896212E-6,0.0011480640705113963
196,192.2582693756035,5.82801427087697E-6,0.0011538920847822733
197,192.19311911439596,5.775641559608823E-6,0.0011596677263418821
198,192.129329270482,5.669565152189315E-6,0.0011653372914940715
199,192.0650936196661,5.655559648742136E-6,0.0011709928511428136
200,192.0016813116146,5.66604083389424E-6,0.001176658891976708
201,191.93825879288204,5.675720836477841E-6,0.0011823346128131858
202,191.87650658275828,5.5836646771909755E-6,0.0011879182774903766
203,191.81484060065588,5.555610244716477E-6,0.0011934738877350931
204,191.75326453226344,5.539452715832215E-6,0.0011990133404509253
205,191.69343182163297,5.472482135250849E-6,0.0012044858225861762
206,191.63447411791162,5.412870536996849E-6,0.001209898693123173
207,191.5756085528697,5.382256023776231E-6,0.0012152809491469492
208,191.51734615069213,5.34124514061707E-6,0.0012206221942875663
209,191.4586044418044,5.382303865576999E-6,0.0012260044981531432
210,191.3995296310187,5.386682599828389E-6,0.0012313911807529717
211,191.3409634182296,5.384715608481922E-6,0.0012367758963614537
212,191.28276776801283,5.354140262152784E-6,0.0012421300366236064
213,191.22416702038154,5.378009213459448E-6,0.001247508045837066
214,191.16537233342729,5.371363632149156E-6,0.0012528794094692152
215,191.1063439240974,5.425817987515974E-6,0.0012583052274567311
216,191.04766921453444,5.460782001898287E-6,0.0012637660094586293
217,190.9891915636437,5.430120452111839E-6,0.0012691961299107412
218,190.93160794782852,5.40869830627982E-6,0.0012746048282170212
219,190.8753409393538,5.397813524658799E-6,0.00128000264174168
220,190.8196808872949,5.367540248856976E-6,0.0012853701819905369
221,190.7646506078643,5.363886863017772E-6,0.0012907340688535546
222,190.70906207840937,5.377439666158182E-6,0.0012961115085197128
223,190.65365756318332,5.37999272440235E-6,0.0013014915012441151
224,190.59762222459958,5.4119404339524795E-6,0.0013069034416780677
225,190.54176477809767,5.412427654406462E-6,0.0013123158693324742
226,190.4866083509882,5.410140378846577E-6,0.0013177260097113207
227,190.43077047488018,5.4606888938246056E-6,0.0013231866986051454
228,190.37635227438648,5.4512907534643846E-6,0.0013286379893586097
229,190.32169015570165,5.554371083470156E-6,0.00133419236044208
230,190.2672059076554,5.47524730906972E-6,0.0013396676077511497
231,190.21251756585883,5.503825319194794E-6,0.0013451714330703444
232,190.1592348533025,5.395358688177365E-6,0.0013505667917585217
233,190.1058527895994,5.419861988160873E-6,0.0013559866537466827
234,190.05275505060806,5.376408190039255E-6,0.001361363061936722
235,189.99866797668693,5.352759966313948E-6,0.001366715821903036
236,189.94463231315177,5.327613817093982E-6,0.00137204343572013
237,189.88843370018174,5.36999623135072E-6,0.0013774134319514807
238,189.83262686601262,5.441771744314692E-6,0.0013828552036957954
239,189.77689161583135,5.408206514796486E-6,0.0013882634102105919
240,189.72192508952534,5.459624189093076E-6,0.001393723034399685
241,189.66722033981048,5.3971350059336406E-6,0.0013991201694056187
242,189.6117738425324,5.402538495175904E-6,0.0014045227079007945
243,189.55591586134315,5.445007985964842E-6,0.0014099677158867594
244,189.50118880255556,5.365860862107782E-6,0.0014153335767488672
245,189.44628169710282,5.355685261964804E-6,0.001420689262010832
246,189.39060230917502,5.3290652406161754E-6,0.0014260183272514482
247,189.33419732886918,5.363536784955031E-6,0.0014313818640364032
248,189.27868297924053,5.348870569351478E-6,0.0014367307346057547
249,189.2227470995085,5.33095586388237E-6,0.001442061690469637
250,189.16663823206386,5.355421166014324E-6,0.0014474171116356513
251,189.11253089192027,5.318173045572726E-6,0.001452735284681224
252,189.05797718634008,5.318903289097715E-6,0.0014580541879703217
253,189.0023788346015,5.38849065545127E-6,0.001463442678625773
254,188.94588891038134,5.380784402310733E-6,0.0014688234630280837
255,188.89072959776598,5.361305230198291E-6,0.001474184768258282
256,188.83653749576837,5.358219623751524E-6,0.0014795429878820335
257,188.78218556498186,5.4047133831822485E-6,0.0014849477012652157
258,188.72750863004472,5.420233938676406E-6,0.0014903679352038922
259,188.67336245108305,5.468991009149781E-6,0.001495836926213042
260,188.61927704493615,5.455514884198442E-6,0.0015012924410972403
261,188.56519467324145,5.476474751934685E-6,0.001506768915849175
262,188.51028905555646,5.51808587845917E-6,0.0015122870017276343
263,188.45469455014504,5.483259292609733E-6,0.001517770261020244
264,188.40019163684144,5.4427972208474745E-6,0.0015232130582410915
265,188.3454152765529,5.413913866226198E-6,0.0015286269721073178
266,188.29151713694193,5.337605679256114E-6,0.0015339645777865739
267,188.23691242558138,5.342680947340286E-6,0.0015393072587339142
268,188.18131762956187,5.444528872203839E-6,0.0015447517876061182
269,188.1269114200281,5.474727301045861E-6,0.001550226514907164
270,188.0721318734874,5.519158510039974E-6,0.001555745673417204
271,188.01851883530335,5.395612637037491E-6,0.0015611412860542415
272,187.96418685859476,5.374365022921283E-6,0.0015665156510771628
273,187.90989524537005,5.3550914630666766E-6,0.0015718707425402293
274,187.85584455481506,5.3902213495847E-6,0.0015772609638898141
275,187.8010236929644,5.477707351099794E-6,0.001582738671240914
276,187.74802733929906,5.484145132310407E-6,0.0015882228163732245
277,187.69621532561226,5.457427509888622E-6,0.001593680243883113
278,187.64462232709514,5.396905094417423E-6,0.0015990771489775304
279,187.59225117245975,5.363704958340995E-6,0.0016044408539358714
280,187.5388871861752,5.433781562126957E-6,0.0016098746354979983
281,187.48442661747058,5.483486657002467E-6,0.0016153581221550006
282,187.4303198648082,5.490914188924918E-6,0.0016208490363439256
283,187.37570996533617,5.569996136286077E-6,0.0016264190324802117
284,187.3212710042112,5.463952768499079E-6,0.0016318829852487108
285,187.2675554678058,5.430543590469413E-6,0.0016373135288391802
286,187.21234411437246,5.4687386311845955E-6,0.0016427822674703648
287,187.15697245018427,5.5210241206081176E-6,0.001648303291590973
288,187.102358001013,5.494346584654405E-6,0.0016537976381756274
289,187.04643992287316,5.570543770881957E-6,0.0016593681819465093
290,186.9909203502868,5.520802699990165E-6,0.0016648889846464995
291,186.93475181138834,5.516030047611617E-6,0.0016704050146941112
292,186.8778761603229,5.533176655554708E-6,0.0016759381913496658
293,186.82026402657158,5.575878077657498E-6,0.0016815140694273233
294,186.76185514377678,5.606345994343569E-6,0.001687120415421667
295,186.70441005475902,5.649537671892056E-6,0.001692769953093559
296,186.64599163520035,5.63672578375554E-6,0.0016984066788773146
297,186.58785977816186,5.5842813366563795E-6,0.001703990960213971
298,186.52846996549175,5.623418410675976E-6,0.001709614378624647
299,186.47041206985233,5.601815936828466E-6,0.0017152161945614755
300,186.4118955614377,5.607854625683874E-6,0.0017208240491871595
301,186.35435208972538,5.654566713445431E-6,0.0017264786159006049
302,186.2958543418669,5.616060856665502E-6,0.0017320946767572704
303,186.2383545538922,5.636945324461227E-6,0.0017377316220817316
304,186.18070320374844,5.720417991143444E-6,0.001743452040072875
305,186.123965056995,5.617752184947976E-6,0.001749069792257823
306,186.06868717724967,5.607437560175889E-6,0.001754677229817999
307,186.01510489284968,5.494885420614327E-6,0.0017601721152386133
