#t,ESS,tempDiff,temp
0,200.00000000000065,0.0,0.0
1,199.99979857508137,5.485478708102094E-6,5.485478708102094E-6
2,199.99920731321765,5.383706391402219E-6,1.0869185099504314E-5
3,199.99820948596167,5.4332087821645995E-6,1.6302393881668913E-5
4,199.99680140699016,5.4484696533458405E-6,2.1750863535014755E-5
5,199.99498322109747,5.468831998450037E-6,2.7219695533464792E-5
6,199.99279856126032,5.433727498446425E-6,3.265342303191122E-5
7,199.99018585692113,5.490032720860917E-6,3.8143455752772134E-5
8,199.98720464499812,5.553566559144246E-6,4.369702231191638E-5
9,199.98384906249527,5.550036854177804E-6,4.924705916609418E-5
10,199.98011562482105,5.5579193482889E-6,5.480497851438308E-5
11,199.97600837836856,5.553394162913798E-6,6.035837267729688E-5
12,199.97151751474362,5.542673857585076E-6,6.590104653488195E-5
13,199.96657424634043,5.589733299767296E-6,7.149077983464924E-5
14,199.96122709736656,5.536580149501635E-6,7.702735998415088E-5
15,199.95559492931088,5.426104070742892E-6,8.245346405489377E-5
16,199.94963957895115,5.43338545316989E-6,8.788684950806366E-5
17,199.94326205260262,5.45374565198396E-6,9.334059516004761E-5
18,199.9365541222748,5.434886546420558E-6,9.877548170646817E-5
19,199.92940177110424,5.443425783115093E-6,1.0421890748958326E-4
20,199.92183063607797,5.486625101220421E-6,1.0970553259080369E-4
21,199.91392388008003,5.448629969546842E-6,1.1515416256035053E-4
22,199.90570509243605,5.44006734653553E-6,1.2059422990688607E-4
23,199.8970337775268,5.404541949938241E-6,1.259987718568243E-4
24,199.8879647431437,5.360436126387003E-6,1.313592079832113E-4
25,199.8784616664099,5.352694175774051E-6,1.3671190215898535E-4
26,199.8686415481787,5.333532344165496E-6,1.4204543450315084E-4
27,199.85849003699263,5.277694183504769E-6,1.473231286866556E-4
28,199.8479355468492,5.294354162944558E-6,1.5261748284960017E-4
29,199.83708714469597,5.262680335715121E-6,1.5788016318531528E-4
30,199.8259933982484,5.287021758250379E-6,1.6316718494356565E-4
31,199.81457128503976,5.2460288941959715E-6,1.6841321383776161E-4
32,199.80287840811306,5.230309430322481E-6,1.736435232680841E-4
33,199.79091004595787,5.220579756870032E-6,1.7886410302495414E-4
34,199.7785548956533,5.175687068102736E-6,1.840397900930569E-4
35,199.76576910143265,5.212807552469368E-6,1.8925259764552624E-4
36,199.75263149318505,5.22197142666597E-6,1.944745690721922E-4
37,199.73879402330064,5.267657076826958E-6,1.9974222614901917E-4
38,199.72447664700294,5.318570283619157E-6,2.0506079643263834E-4
39,199.70976715338327,5.319886441721688E-6,2.1038068287436003E-4
40,199.69472851270947,5.336710466188259E-6,2.157173933405483E-4
41,199.67940258229217,5.3042484692770724E-6,2.2102164180982538E-4
42,199.66419423910736,5.231750429690058E-6,2.2625339223951543E-4
43,199.64885730077734,5.159144781383706E-6,2.3141253702089914E-4
44,199.63337338304015,5.157779824557439E-6,2.3657031684545658E-4
45,199.6176694735255,5.167775711372245E-6,2.4173809255682881E-4
46,199.60163698777552,5.183703514237491E-6,2.469217960710663E-4
47,199.58542768094352,5.1355092554210215E-6,2.520573053264873E-4
48,199.56882067446236,5.145130694871223E-6,2.5720243602135855E-4
49,199.55164535042576,5.196235233659474E-6,2.6239867125501805E-4
50,199.53420797966987,5.2303798992704584E-6,2.676290511542885E-4
51,199.51635195871864,5.237231874233774E-6,2.728662830285223E-4
52,199.49826992618483,5.28481316208314E-6,2.781510961906054E-4
53,199.47982607894193,5.3329474627647155E-6,2.834840436533701E-4
54,199.46103883503656,5.33771538692449E-6,2.888217590402946E-4
55,199.44184196484207,5.391495248106171E-6,2.942132542884008E-4
56,199.42204083017967,5.5097765070037E-6,2.9972303079540453E-4
57,199.401982397314,5.490266334903038E-6,3.052132971303076E-4
58,199.38146442567316,5.4791613152714465E-6,3.10692458445579E-4
59,199.36035777716043,5.551341986806947E-6,3.1624380043238597E-4
60,199.33902675192567,5.548294419624639E-6,3.2179209485201063E-4
61,199.31707671159677,5.650990498510332E-6,3.2744308535052094E-4
62,199.29518900498175,5.606340312769619E-6,3.3304942566329056E-4
63,199.2723993180508,5.675287752906511E-6,3.387247134161971E-4
64,199.24915529904092,5.661311553809666E-6,3.4438602497000677E-4
65,199.22553738387464,5.66520547518522E-6,3.50051230445192E-4
66,199.20166953181916,5.653893905160896E-6,3.557051243503529E-4
67,199.17724625963328,5.660174720188334E-6,3.613652990705412E-4
68,199.15238726566864,5.6799859661289124E-6,3.6704528503667014E-4
69,199.12716041250312,5.689573789456005E-6,3.7273485882612615E-4
70,199.10156688475428,5.7340408881003266E-6,3.784688997142265E-4
71,199.07623645136127,5.6718730878682886E-6,3.8414077280209477E-4
72,199.05111234733494,5.603473448458563E-6,3.8974424625055334E-4
73,199.02574053828184,5.550727717973019E-6,3.9529497396852635E-4
74,199.00018572620596,5.53495930250757E-6,4.008299332710339E-4
75,198.97452978302923,5.525186954697348E-6,4.063551202257313E-4
76,198.94893883472898,5.478798665632799E-6,4.118339188913641E-4
77,198.92333591049962,5.445255439610638E-6,4.1727917433097473E-4
78,198.8976525686422,5.430951818887469E-6,4.227101261498622E-4
79,198.87215016742377,5.4141798784253755E-6,4.281243060282876E-4
80,198.84661707687172,5.397165082180778E-6,4.3352147111046837E-4
81,198.8208601166589,5.384591723962037E-6,4.389060628344304E-4
82,198.79457783350213,5.393827944605137E-6,4.4429989077903555E-4
83,198.76729168112462,5.472745001617607E-6,4.4977263578065314E-4
84,198.74022453262435,5.460388631422196E-6,4.552330244120753E-4
85,198.7127878725093,5.467479432444444E-6,4.6070050384451974E-4
86,198.6849498038194,5.48978113661743E-6,4.6619028498113717E-4
87,198.65707853267028,5.452121846511328E-6,4.716424068276485E-4
88,198.6287896262915,5.545334306775333E-6,4.771877411344238E-4
89,198.6003572500752,5.521247007065571E-6,4.8270898814148936E-4
90,198.57217268151518,5.4852490425734585E-6,4.881942371840628E-4
91,198.54342055995667,5.528320973761195E-6,4.93722558157824E-4
92,198.51407379733337,5.5505359589349455E-6,4.992730941167589E-4
93,198.48488482997922,5.584667670508812E-6,5.048577617872678E-4
94,198.4557171578793,5.512794059896684E-6,5.103705558471644E-4
95,198.42587075004275,5.540099464022964E-6,5.159106553111874E-4
96,198.39524183335746,5.55417554297754E-6,5.21464830854165E-4
97,198.36423582012836,5.546316422075701E-6,5.270111472762407E-4
98,198.33326608859798,5.528899986283358E-6,5.32540047262524E-4
99,198.30215906263794,5.5759687721822E-6,5.381160160347063E-4
100,198.27027097880594,5.626523828935862E-6,5.437425398636421E-4
101,198.23890749490963,5.5706182974416915E-6,5.493131581610838E-4
102,198.20720898600737,5.594293126433687E-6,5.549074512875174E-4
103,198.17538456857872,5.574647502120636E-6,5.604820987896381E-4
104,198.14309684361885,5.560051869173165E-6,5.660421506588113E-4
105,198.10981242019852,5.646720716039182E-6,5.716888713748504E-4
106,198.07622544743083,5.690100001048922E-6,5.773789713758993E-4
107,198.0425694124231,5.69712926700452E-6,5.830761006429038E-4
108,198.00868528539718,5.665767713572284E-6,5.887418683564761E-4
109,197.97468332841206,5.6522145901025135E-6,5.943940829465786E-4
110,197.9403017938887,5.6507994409491934E-6,6.000448823875277E-4
111,197.90609118811417,5.615855466075527E-6,6.056607378536032E-4
112,197.87126975463184,5.608524861763656E-6,6.112692627153669E-4
113,197.8364131400147,5.581613034398158E-6,6.168508757497651E-4
114,197.80126305722897,5.550868834507343E-6,6.224017445842725E-4
115,197.7667163446315,5.539951869444694E-6,6.279416964537172E-4
116,197.73233163558854,5.4997288970190194E-6,6.334414253507362E-4
117,197.69760736211143,5.55178278835693E-6,6.389932081390931E-4
118,197.66180541094772,5.654133882580298E-6,6.446473420216734E-4
119,197.62556640572436,5.6573431471368856E-6,6.503046851688102E-4
120,197.5893700617822,5.651752181180855E-6,6.55956437349991E-4
121,197.55419392523524,5.625289339775827E-6,6.615817266897669E-4
122,197.51906003818772,5.623942467784696E-6,6.672056691575516E-4
123,197.48412660468003,5.513607976097032E-6,6.727192771336486E-4
124,197.4495197651956,5.451929059473371E-6,6.78171206193122E-4
125,197.41505793435016,5.389775452310309E-6,6.835609816454323E-4
126,197.37929098908376,5.428626004449026E-6,6.889896076498814E-4
127,197.34338878254206,5.461279136202097E-6,6.944508867860835E-4
128,197.307314980743,5.4425947065554675E-6,6.99893481492639E-4
129,197.27109807436472,5.438523300986765E-6,7.053320047936257E-4
130,197.23415911551822,5.465196933882406E-6,7.107972017275081E-4
131,197.19694865062144,5.455474763677409E-6,7.162526764911855E-4
132,197.15949930578137,5.471600978726896E-6,7.217242774699124E-4
133,197.12215053419973,5.50817989763046E-6,7.272324573675428E-4
134,197.0838352894016,5.5401603271664594E-6,7.327726176947092E-4
135,197.04495771176042,5.56784525724177E-6,7.38340462951951E-4
136,197.00548741782794,5.545530342006861E-6,7.438859932939578E-4
137,196.96651782822653,5.512935189527733E-6,7.493989284834856E-4
138,196.92716624788946,5.568411396267132E-6,7.549673398797528E-4
139,196.88663753617575,5.655142579390299E-6,7.60622482459143E-4
140,196.84657652646732,5.603954793790177E-6,7.662264372529332E-4
141,196.80667383153198,5.535175090241716E-6,7.71761612343175E-4
142,196.76673075717565,5.516014631204168E-6,7.772776269743791E-4
143,196.72606840902986,5.546095739877263E-6,7.828237227142564E-4
144,196.6849554023079,5.485264037327854E-6,7.883089867515842E-4
145,196.64252578498466,5.526418319330719E-6,7.93835405070915E-4
146,196.60031002105862,5.517125200246357E-6,7.993525302711613E-4
147,196.55745859383967,5.546737745958585E-6,8.048992680171199E-4
148,196.51527377112976,5.455602158658495E-6,8.103548701757783E-4
149,196.47250426080828,5.487432172203074E-6,8.158423023479814E-4
150,196.4289780652174,5.483561360879329E-6,8.213258637088608E-4
151,196.3853971248522,5.459073966687159E-6,8.267849376755479E-4
152,196.34145173645737,5.481600202895712E-6,8.322665378784436E-4
153,196.2965163947406,5.479213996396918E-6,8.377457518748406E-4
154,196.25097670602915,5.511267550090988E-6,8.432570194249315E-4
155,196.2060541889966,5.437155251613071E-6,8.486941746765446E-4
156,196.16104853390505,5.463951212965493E-6,8.541581258895101E-4
157,196.1163043270219,5.405225555549704E-6,8.595633514450598E-4
158,196.07107967894012,5.428229460419172E-6,8.64991580905479E-4
159,196.02542375783042,5.4427681331650055E-6,8.704343490386439E-4
160,195.97892667885077,5.437136344347117E-6,8.75871485382991E-4
161,195.93165500324525,5.454435410074855E-6,8.813259207930659E-4
162,195.88390452778916,5.466850735934329E-6,8.867927715290003E-4
163,195.8368733143839,5.435186991499171E-6,8.922279585204994E-4
164,195.78858972587204,5.4754196799963285E-6,8.977033782004957E-4
165,195.74071265827936,5.4676701906511285E-6,9.031710483911468E-4
166,195.69130894203536,5.4691706514805265E-6,9.086402190426273E-4
167,195.64194033007533,5.495976018580088E-6,9.141361950612074E-4
168,195.5936588718618,5.3752810158176785E-6,9.19511476077025E-4
169,195.54703119790435,5.293029345013515E-6,9.248045054220385E-4
170,195.5008394737719,5.284424435416591E-6,9.300889298574551E-4
171,195.45413588645582,5.3001017780005436E-6,9.353890316354556E-4
172,195.40712088085513,5.311661300408809E-6,9.407006929358643E-4
173,195.36003775340393,5.267735022429461E-6,9.459684279582937E-4
174,195.31265027958202,5.290045372844667E-6,9.512584733311384E-4
175,195.26558916629938,5.276095754323885E-6,9.565345690854622E-4
176,195.2187137907784,5.2111704606118426E-6,9.617457395460741E-4
177,195.17135763098892,5.20070612656875E-6,9.669464456726429E-4
178,195.12349022625025,5.235474703026639E-6,9.721819203756695E-4
179,195.07580911581925,5.248950493118493E-6,9.77430870868788E-4
180,195.0273963902631,5.282666459073377E-6,9.827135373278613E-4
181,194.9790112019804,5.2501692411623125E-6,9.879637065690237E-4
182,194.93162032797997,5.243738444886499E-6,9.932074450139101E-4
183,194.88341890344572,5.250018476680554E-6,9.984574634905906E-4
184,194.83514680359852,5.196852561006678E-6,0.0010036543160515973
185,194.78567840795185,5.2382855811951365E-6,0.0010088926016327924
186,194.73568858638586,5.2723428200887735E-6,0.001014164944452881
187,194.68592753037237,5.264206807313525E-6,0.0010194291512601946
188,194.6356302554471,5.255305362440897E-6,0.0010246844566226354
189,194.58536621332897,5.193316544304285E-6,0.0010298777731669398
190,194.53435679180924,5.227107633746202E-6,0.0010351048808006859
191,194.48373480691757,5.250280962040029E-6,0.0010403551617627258
192,194.43206467917886,5.2995142663125015E-6,0.0010456546760290383
193,194.37954932719796,5.307518001331506E-6,0.0010509621940303698
194,194.32670672644366,5.330213742570195E-6,0.0010562924077729399
195,194.27252807835947,5.4099460014236215E-6,0.0010617023537743634
196,194.21851020374456,5.351151123770558E-6,0.001067053504898134
197,194.16440783909385,5.350477301810467E-6,0.0010724039821999444
198,194.11087282994416,5.386720431398683E-6,0.001077790702631343
199,194.05665131185398,5.40780078905489E-6,0.0010831985034203979
200,194.0020924018494,5.404922078221499E-6,0.0010886034254986195
201,193.94664485639132,5.404274273892359E-6,0.0010940076997725118
202,193.89114468435042,5.383536017630725E-6,0.0010993912357901425
203,193.83449038629826,5.380643080527183E-6,0.0011047718788706697
204,193.77756054457254,5.369431892174921E-6,0.0011101413107628445
205,193.72054166170528,5.336159565725603E-6,0.00111547747032857
206,193.6634224714437,5.303494791463828E-6,0.0011207809651200338
207,193.6060713058735,5.294563050605169E-6,0.001126075528170639
208,193.54803695561785,5.326642040311971E-6,0.001131402170210951
209,193.4886725225041,5.357446871188108E-6,0.001136759617082139
210,193.42898705550104,5.360351313268291E-6,0.0011421199683954073
211,193.3709761314119,5.3256889503223185E-6,0.0011474456573457297
212,193.31236304723973,5.2836223564836845E-6,0.0011527292797022133
213,193.2525772547331,5.309884883833105E-6,0.0011580391645860464
214,193.19246123184055,5.315793799737293E-6,0.0011633549583857836
215,193.13364054652658,5.276049190165928E-6,0.0011686310075759495
216,193.07416758551545,5.312987480964121E-6,0.0011739439950569136
217,193.0150393238411,5.227323230770794E-6,0.0011791713182876843
218,192.95655778905714,5.22210045296943E-6,0.0011843934187406536
219,192.89856726514384,5.177066166094575E-6,0.0011895704849067483
220,192.84068139678473,5.165358698426506E-6,0.0011947358436051748
221,192.78330744397158,5.16020827774584E-6,0.0011998960518829207
222,192.7263877424399,5.157349125047699E-6,0.0012050534010079684
223,192.66919146038504,5.193991464914733E-6,0.001210247392472883
224,192.61192479320576,5.195287612094767E-6,0.0012154426800849777
225,192.5552846230198,5.144553660373445E-6,0.0012205872337453512
226,192.49732513441597,5.170221521632958E-6,0.0012257574552669841
227,192.4408745508616,5.1370065009161224E-6,0.0012308944617679001
228,192.3835792979804,5.208848209838817E-6,0.001236103309977739
229,192.32649311104424,5.2035441076532E-6,0.001241306854085392
230,192.26909373829477,5.217793674522921E-6,0.0012465246477599149
231,192.21106488383057,5.220979232366707E-6,0.0012517456269922815
232,192.15331462038563,5.234525377709985E-6,0.0012569801523699914
233,192.09582168102318,5.175047028882988E-6,0.0012621551993988744
234,192.03840865982167,5.152536836432983E-6,0.0012673077362353074
235,191.9808474162888,5.109798208167698E-6,0.001272417534443475
236,191.92347354582373,5.077196708354353E-6,0.0012774947311518293
237,191.86498569558083,5.141907879458253E-6,0.0012826366390312875
238,191.8062005245566,5.184172831697083E-6,0.0012878208118629847
239,191.74748829806617,5.156547432579042E-6,0.0012929773592955636
240,191.6884692404338,5.1766957793271935E-6,0.0012981540550748908
241,191.62977964879323,5.186739806633482E-6,0.0013033407948815242
242,191.5712608289398,5.191831949967806E-6,0.001308532626831492
243,191.5119392934285,5.232821488905369E-6,0.0013137654483203972
244,191.4533639023802,5.198712920345718E-6,0.001318964161240743
245,191.39400960825577,5.165559668013964E-6,0.0013241297209087568
246,191.33501687289484,5.156300569526842E-6,0.0013292860214782836
247,191.2771577383612,5.151909189932617E-6,0.0013344379306682163
248,191.21879158087583,5.169921511618951E-6,0.0013396078521798352
249,191.1602032290528,5.1593831236647735E-6,0.0013447672353035
250,191.1026626202304,5.11113547941795E-6,0.001349878370782918
251,191.04490167378572,5.10292526785325E-6,0.0013549812960507712
252,190.98736304285723,5.11614221014164E-6,0.0013600974382609128
253,190.9300759932649,5.125408651644472E-6,0.0013652228469125574
254,190.87213390931822,5.1362373556074295E-6,0.0013703590842681647
255,190.8139902765958,5.147205318171091E-6,0.001375506289586336
256,190.75553063678328,5.160089606821294E-6,0.0013806663791931571
257,190.69640288658874,5.2082367780166685E-6,0.0013858746159711739
258,190.63782075175806,5.1677059920422875E-6,0.0013910423219632162
259,190.5799229137822,5.173114713003128E-6,0.0013962154366762194
260,190.52229334119212,5.2097756790117645E-6,0.0014014252123552313
261,190.46461162363155,5.199023756207916E-6,0.0014066242361114392
262,190.40612145662791,5.249272109471557E-6,0.0014118735082209108
263,190.3466315674058,5.26501595356318E-6,0.0014171385241744739
264,190.28693079654744,5.331368630756503E-6,0.0014224698928052303
265,190.22826198951546,5.325672792889961E-6,0.0014277955655981204
266,190.1696518411252,5.311937519118741E-6,0.0014331075031172391
267,190.11100208433385,5.341940212289557E-6,0.0014384494433295288
268,190.05114461802484,5.374547952321566E-6,0.0014438239912818503
269,189.99109112379165,5.403081463853327E-6,0.0014492270727457038
270,189.92987255005707,5.431607613053305E-6,0.0014546586803587571
271,189.86827424448384,5.41277044367988E-6,0.0014600714508024371
272,189.80821397837892,5.374853313674887E-6,0.001465446304116112
273,189.74816569596584,5.3836281256690144E-6,0.001470829932241781
274,189.68829085638694,5.3858866823014685E-6,0.0014762158189240825
275,189.62845924239977,5.398870315493755E-6,0.0014816146892395762
276,189.5679537453207,5.42641042401396E-6,0.0014870410996635902
277,189.507529865489,5.402905505091052E-6,0.0014924440051686813
278,189.44681948233256,5.381591658872192E-6,0.0014978255968275535
279,189.38477148368045,5.404650587902293E-6,0.0015032302474154557
280,189.32293584416425,5.41203684915598E-6,0.0015086422842646116
281,189.26098425598443,5.428517567412396E-6,0.001514070801832024
282,189.19899482992955,5.542744446947426E-6,0.0015196135462789712
283,189.13698377343434,5.500543581916472E-6,0.0015251140898608878
284,189.0753804339827,5.506289338088865E-6,0.0015306203791989766
285,189.01490256131248,5.5016289456247896E-6,0.0015361220081446013
286,188.95392477245127,5.537779810829749E-6,0.001541659787955431
287,188.89292415764024,5.497254136379521E-6,0.0015471570420918107
288,188.8315770826285,5.499108832876677E-6,0.0015526561509246874
289,188.7686655957718,5.556155962240905E-6,0.0015582123068869282
290,188.7056737266838,5.541802996753756E-6,0.001563754109883682
291,188.64259533509005,5.501569761600037E-6,0.001569255679645282
292,188.57824690911227,5.533808248533716E-6,0.0015747894878938157
293,188.51384004720006,5.572680051644152E-6,0.00158036216794546
294,188.44931901110687,5.5374291150203775E-6,0.0015858995970604803
295,188.38399359483816,5.566732340445045E-6,0.0015914663294009253
296,188.3167493362947,5.663907696976482E-6,0.0015971302370979018
297,188.25009669597142,5.650182637464077E-6,0.0016027804197353659
298,188.18306909738646,5.677914009010967E-6,0.0016084583337443769
299,188.11612557358313,5.688481044723425E-6,0.0016141468147891002
300,188.04878628430208,5.6880030864875005E-6,0.0016198348178755877
301,187.98036254035512,5.708239411127409E-6,0.001625543057286715
302,187.91125694592589,5.732598994770792E-6,0.0016312756562814857
303,187.84174882678673,5.7371759189181795E-6,0.0016370128322004038
304,187.77358638590135,5.635545278544168E-6,0.001642648377478948
305,187.70530941300015,5.663042584281596E-6,0.0016483114200632296
306,187.63793591033527,5.596707362341916E-6,0.0016539081274255716
307,187.5713884928972,5.623643606824718E-6,0.0016595317710323962
