#t,ESS,tempDiff,temp
0,999.9999999999848,0.0,0.0
1,999.9896482772903,4.044664805729946E-5,4.044664805729946E-5
2,999.9595240161509,4.0387360146013236E-5,8.08340082033127E-5
3,999.9101364719579,4.0514860046096005E-5,1.213488682494087E-4
4,999.8412097942207,4.066401549064464E-5,1.6201288374005334E-4
5,999.7535962290586,4.092545228552706E-5,2.029383360255804E-4
6,999.6453369781119,4.12522892422782E-5,2.441906252678586E-4
7,999.521401358145,4.083416895551288E-5,2.850247942233715E-4
8,999.379553307982,4.10262865127575E-5,3.26051080736129E-4
9,999.2207318989948,4.0971251412337093E-5,3.6702233214846606E-4
10,999.0445120445621,4.0704519916824534E-5,4.077268520652906E-4
11,998.8539327144657,4.065302956427944E-5,4.4837988162957E-4
12,998.6529608322287,4.024975447725705E-5,4.886296361068271E-4
13,998.4390325843117,4.031701031426427E-5,5.289466464210914E-4
14,998.2138030100991,4.024504869254906E-5,5.691916951136405E-4
15,997.9770472212133,3.977802770205729E-5,6.089697228156978E-4
16,997.7268184894622,4.011291016315035E-5,6.490826329788482E-4
17,997.4662502599026,3.989694723488565E-5,6.889795802137339E-4
18,997.1890970255865,3.996536556364588E-5,7.289449457773797E-4
19,996.9084688847424,4.006075620065652E-5,7.690057019780363E-4
20,996.6174390388925,4.030434745840046E-5,8.093100494364368E-4
21,996.3089379211648,4.065977563371335E-5,8.499698250701501E-4
22,995.9913609811474,4.0239538410563426E-5,8.902093634807135E-4
23,995.6591838627351,4.0281513620360506E-5,9.30490877101074E-4
24,995.31403657238,4.018244993974193E-5,9.70673327040816E-4
25,994.9607634679176,4.03306428416872E-5,0.0010110039698825032
26,994.5881491828734,4.094078873786669E-5,0.0010519447586203698
27,994.20793543361,4.0894873524437976E-5,0.0010928396321448078
28,993.8190647367638,4.086176563016848E-5,0.0011337013977749763
29,993.4185819714036,4.0933456904332764E-5,0.001174634854679309
30,993.005098360258,4.056685454393173E-5,0.0012152017092232409
31,992.5786968247746,4.082292943383027E-5,0.0012560246386570711
32,992.1465943901175,4.066590163204657E-5,0.0012966905402891178
33,991.7080066180623,4.058248639710559E-5,0.0013372730266862235
34,991.2615791740716,4.0245599003782446E-5,0.001377518625690006
35,990.8093292880487,4.005443536068318E-5,0.0014175730610506891
36,990.344439821457,3.994070428529599E-5,0.001457513765335985
37,989.8727409622282,3.985980979325378E-5,0.001497373575129239
38,989.3988642102274,3.976546757414421E-5,0.0015371390427033832
39,988.9167403719897,3.96020646570101E-5,0.0015767411073603934
40,988.4354040624893,3.94185441605043E-5,0.0016161596515208976
41,987.9473901819439,3.952855257831155E-5,0.001655688204099209
42,987.454494683794,3.890103300862676E-5,0.0016945892371078358
43,986.9439946909068,3.895712852486201E-5,0.0017335463656326978
44,986.438618140257,3.9153310787887344E-5,0.001772699676420585
45,985.9221662214146,3.981461278282234E-5,0.0018125142892034074
46,985.3861357004764,4.034341645590388E-5,0.0018528577056593112
47,984.8508386372753,4.0103444382147784E-5,0.001892961150041459
48,984.3069981256422,4.0150349080909314E-5,0.0019331114991223682
49,983.7825798376248,3.9794983461207076E-5,0.001972906482583575
50,983.2433274442438,4.014169925446417E-5,0.0020130481818380393
51,982.6916159930458,4.0397026435553094E-5,0.0020534452082735925
52,982.1339411140384,4.019196021061074E-5,0.0020936371684842033
53,981.5716320739933,3.973613686185593E-5,0.0021333733053460592
54,980.9962652938897,3.994313017270002E-5,0.0021733164355187593
55,980.4207267900565,4.0116523338731495E-5,0.002213432958857491
56,979.8293766769795,4.0362500769668677E-5,0.0022537954596271595
57,979.2407031138978,4.010310478332693E-5,0.0022938985644104866
58,978.634166531153,4.007319997017173E-5,0.0023339717643806584
59,978.0223354251284,4.026452204718607E-5,0.0023742362864278446
60,977.4068040325802,4.0191910613428814E-5,0.0024144281970412736
61,976.7940232453003,4.042048817033882E-5,0.0024548486852116126
62,976.1839259544819,4.021204800230901E-5,0.0024950607332139218
63,975.5760968611145,4.01144375248012E-5,0.002535175170738723
64,974.9752372137217,3.958726605311151E-5,0.0025747624367918344
65,974.3547718591091,3.973431661495522E-5,0.0026144967534067897
66,973.7426085967369,3.9715561684323566E-5,0.0026542123150911133
67,973.1207097748097,3.966396278860572E-5,0.0026938762778797192
68,972.5057547924886,3.915525475049627E-5,0.0027330315326302155
69,971.9003510971344,3.875056318498595E-5,0.0027717820958152012
70,971.2818012723502,3.913638432085113E-5,0.0028109184801360524
71,970.6692737115093,3.86940163027704E-5,0.002849612496438823
72,970.0712006995641,3.853796457822786E-5,0.002888150461017051
73,969.4598580688651,3.8421580689115496E-5,0.0029265720417061664
74,968.8479300104124,3.827200888960639E-5,0.0029648440505957727
75,968.2325424500566,3.8150555964516285E-5,0.003002994606560289
76,967.6066888178411,3.8216864615175396E-5,0.0030412114711754644
77,966.9911298377139,3.852104618540283E-5,0.003079732517360867
78,966.3647756281226,3.916916160065804E-5,0.0031189016789615253
79,965.7335206054626,3.953192858752748E-5,0.0031584336075490527
80,965.1102796981056,3.935647420033366E-5,0.003197790081749386
81,964.4893195223066,3.913144742945388E-5,0.00323692152917884
82,963.8663676180117,3.915702624495506E-5,0.003276078555423795
83,963.2302135394842,3.9136182102534935E-5,0.00331521473752633
84,962.5874563548161,3.855289958118278E-5,0.0033537676371075127
85,961.9368467865221,3.84615024127213E-5,0.003392229139520234
86,961.2782016219378,3.884804170501371E-5,0.0034310771812252477
87,960.626513831049,3.886887721553967E-5,0.0034699460584407876
88,959.9573628852806,3.94029293670723E-5,0.00350934898780786
89,959.2769799761186,3.9354430079143126E-5,0.003548703417887003
90,958.5790425116376,3.932459159677643E-5,0.0035880280094837793
91,957.8848629576058,3.991817100712746E-5,0.003627946180490907
92,957.1938158263536,3.971597833761266E-5,0.0036676621588285197
93,956.5075264781633,3.931684983834377E-5,0.0037069790086668637
94,955.8089881682664,3.959178789956765E-5,0.003746570796566431
95,955.1099771520874,3.9267137065786206E-5,0.0037858379336322173
96,954.43104631519,3.8915323484041145E-5,0.0038247532571162586
97,953.7429092811344,3.879557059556551E-5,0.003863548827711824
98,953.0668582691369,3.850411943995904E-5,0.0039020529471517833
99,952.3829722277736,3.8417073433699654E-5,0.003940470020585483
100,951.6914806795502,3.802664782669197E-5,0.003978496668412174
101,951.0078201364133,3.819334750425154E-5,0.004016690015916426
102,950.2733402630411,3.90724142170908E-5,0.0040557624301335166
103,949.5253707003009,3.918318629558462E-5,0.004094945616429101
104,948.7644749460744,3.992084944262562E-5,0.004134866465871727
105,948.0040973999968,3.9766319313214784E-5,0.0041746327851849415
106,947.2510757432187,3.896411811055339E-5,0.004213596903295495
107,946.5101754631277,3.8570148579123483E-5,0.004252167051874619
108,945.7548626312026,3.841769857472135E-5,0.00429058475044934
109,944.9915511481826,3.870686008495893E-5,0.004329291610534299
110,944.215704920845,3.9064178237651774E-5,0.004368355788771951
111,943.466376738752,3.840397702894757E-5,0.004406759765800899
112,942.7162183465588,3.8524984977061115E-5,0.00444528475077796
113,941.9783908338244,3.8023419774255915E-5,0.004483308170552216
114,941.2268174871883,3.810632870311588E-5,0.004521414499255331
115,940.4736225928839,3.822108733784506E-5,0.004559635586593176
116,939.7307811039223,3.7813978632109844E-5,0.004597449565225286
117,938.997287785766,3.7654283050622304E-5,0.0046351038482759085
118,938.2653473704431,3.783911363278274E-5,0.004672942961908691
119,937.4984563888132,3.82697676064308E-5,0.004711212729515122
120,936.7371622396768,3.816121078736499E-5,0.004749373940302487
121,935.9810953303943,3.818995346498359E-5,0.0047875638937674705
122,935.1970876761509,3.8519413683105195E-5,0.0048260833074505755
123,934.4563448487411,3.824304322975695E-5,0.004864326350680332
124,933.7346691421707,3.815370783175198E-5,0.004902480058512085
125,932.9989948208844,3.821015331421496E-5,0.0049406902118263
126,932.2525053161156,3.813962467905169E-5,0.004978829836505352
127,931.4950286837653,3.83544897198445E-5,0.005017184326225196
128,930.7367667468509,3.8255687407692046E-5,0.005055440013632889
129,929.9834684174183,3.8399659234397265E-5,0.0050938396728672855
130,929.2421298112304,3.8546515720246374E-5,0.005132386188587532
131,928.505235446089,3.860812020959749E-5,0.005170994308797129
132,927.7728592976151,3.84198325235817E-5,0.005209414141320711
133,927.0438932174453,3.77895039693411E-5,0.005247203645290052
134,926.3195750241263,3.817425850349956E-5,0.005285377903793551
135,925.5754079306212,3.8996881167772E-5,0.005324374784961323
136,924.8380888659772,3.913181159473894E-5,0.005363506596556062
137,924.1107798193233,3.875542860377597E-5,0.005402262025159838
138,923.3681280542088,3.9203671372669065E-5,0.005441465696532507
139,922.6032804891834,3.9445468975430504E-5,0.005480911165507938
140,921.852116248966,3.9552448317870014E-5,0.005520463613825808
141,921.124883248809,3.919972216948966E-5,0.005559663335995297
142,920.4132529607481,3.912549138702771E-5,0.0055987888273823245
143,919.7103085633055,3.917479868618941E-5,0.005637963626068514
144,918.9967624533601,3.9127937952646914E-5,0.005677091564021161
145,918.2570176110859,3.937303688168181E-5,0.005716464600902842
146,917.5244733797887,3.926735550111729E-5,0.0057557319564039595
147,916.781311352119,3.935251207460284E-5,0.005795084468478562
148,916.0384777454768,3.942506529408055E-5,0.005834509533772643
149,915.2998288328687,3.9380150784837936E-5,0.005873889684557481
150,914.5658913815687,3.8978252338570685E-5,0.005912867936896052
151,913.8134501529017,3.9410880902845565E-5,0.005952278817798897
152,913.0681568923394,3.8897616557159925E-5,0.005991176434356057
153,912.3331109695422,3.879397229368075E-5,0.006029970406649738
154,911.6257367574378,3.865402177333131E-5,0.0060686244284230695
155,910.9199545665325,3.863224132766085E-5,0.006107256669750731
156,910.2079694518097,3.8691394637422377E-5,0.006145948064388153
157,909.5189157491592,3.838470938308577E-5,0.006184332773771239
158,908.8007609335473,3.8707135776954256E-5,0.006223039909548193
159,908.0467077845352,3.915292157169821E-5,0.006262192831119891
160,907.280494340712,3.9129474262571887E-5,0.006301322305382463
161,906.5229710660534,3.932028058340975E-5,0.006340642585965873
162,905.7784469604995,3.835424769096539E-5,0.006378996833656838
163,905.0303078817723,3.832947489529546E-5,0.006417326308552133
164,904.2991115263911,3.843807923628969E-5,0.006455764387788422
165,903.5787869248808,3.8223706397231585E-5,0.006493988094185654
166,902.8719593164425,3.7917064934272006E-5,0.006531905159119926
167,902.1450003213006,3.839337732478156E-5,0.006570298536444708
168,901.4152552928298,3.826375834778369E-5,0.006608562294792492
169,900.6772920654864,3.777159136155403E-5,0.006646333886154046
170,899.965836370786,3.757145413450774E-5,0.006683905340288554
171,899.2721664909882,3.763681408842339E-5,0.006721542154376977
172,898.592097140069,3.804128224657025E-5,0.006759583436623548
173,897.9249234985336,3.7783603340353597E-5,0.0067973670399639015
174,897.2584352561962,3.815718036133513E-5,0.006835524220325236
175,896.619533706621,3.785317128684866E-5,0.006873377391612085
176,895.9727425879357,3.7797508437866364E-5,0.006911174900049951
177,895.3001607546006,3.76613795774457E-5,0.006948836279627397
178,894.6094771694193,3.734131761209103E-5,0.0069861775972394876
179,893.9238319783018,3.718368823144569E-5,0.007023361285470933
180,893.2256317907104,3.70782173247773E-5,0.00706043950279571
181,892.5383884825218,3.6907882307056894E-5,0.007097347385102767
182,891.8455611345347,3.716778347576394E-5,0.007134515168578531
183,891.1657084605948,3.7082116596455454E-5,0.007171597285174986
184,890.4775982504893,3.726145361426724E-5,0.007208858738789253
185,889.7969397132301,3.75656214627209E-5,0.007246424360251974
186,889.1182728643109,3.792390852021025E-5,0.007284348268772184
187,888.4690250278112,3.783350936948219E-5,0.007322181778141666
188,887.8251243942333,3.799153026224904E-5,0.0073601733084039155
189,887.1753773210812,3.8001195127632406E-5,0.007398174503531548
190,886.5226905232436,3.7780397159885024E-5,0.007435954900691433
191,885.8954999824947,3.8269527258699086E-5,0.007474224427950132
192,885.2363695726821,3.89621091541035E-5,0.007513186537104235
193,884.5864485508574,3.8861263077419495E-5,0.0075520478001816545
194,883.9409066199311,3.883921839078328E-5,0.007590887018572438
195,883.3270313624408,3.827227024053246E-5,0.007629159288812971
196,882.7057211283551,3.84429346060188E-5,0.00766760222341899
197,882.0754865199094,3.8646622135767656E-5,0.007706248845554758
198,881.4559155027099,3.871156210115209E-5,0.00774496040765591
199,880.8488796080397,3.855913657446359E-5,0.0077835195442303735
200,880.2330965256809,3.862109210201248E-5,0.007822140636332386
201,879.6092906150741,3.878590533572361E-5,0.00786092654166811
202,878.989603405194,3.90009753552015E-5,0.007899927517023312
203,878.4122453909982,3.8889633813176185E-5,0.007938817150836488
204,877.8392132100779,3.895581042094528E-5,0.007977772961257434
205,877.2412240583915,3.886040590188094E-5,0.008016633367159316
206,876.6277375800438,3.9119702105864024E-5,0.00805575306926518
207,876.0323856625669,3.861684741662519E-5,0.008094369916681804
208,875.4564826765521,3.824436842137199E-5,0.008132614285103175
209,874.8631223679394,3.8086166414453724E-5,0.008170700451517628
210,874.2966722638644,3.806107539822717E-5,0.008208761526915855
211,873.7140099561317,3.82750110860687E-5,0.008247036538001924
212,873.1339692750922,3.80220896412332E-5,0.008285058627643156
213,872.5425794031518,3.813521279324482E-5,0.0083231938404364
214,871.9419356144482,3.820184318316632E-5,0.008361395683619566
215,871.3393798562724,3.8342893061874255E-5,0.00839973857668144
216,870.7256269726693,3.822147327478276E-5,0.008437960049956223
217,870.0882560135797,3.8407193172287126E-5,0.00847636724312851
218,869.4295600149229,3.868645231567507E-5,0.008515053695444186
219,868.7439983204479,3.894054675819095E-5,0.008553994242202377
220,868.0717922883831,3.9199102024531214E-5,0.008593193344226908
221,867.368780110382,3.986790592695269E-5,0.00863306125015386
222,866.6636317838629,3.9247071008684615E-5,0.008672308321162545
223,865.967902313441,3.942259460850753E-5,0.008711730915771052
224,865.2739522630378,3.9514130547460606E-5,0.008751245046318513
225,864.6032736749886,3.955680935932204E-5,0.008790801855677835
226,863.9100585923397,4.0316545761815763E-5,0.008831118401439651
227,863.1849336087338,4.045428154845015E-5,0.008871572682988101
228,862.4635189660096,4.061905114980608E-5,0.008912191734137907
229,861.7492490287865,4.0904979263000455E-5,0.008953096713400907
230,861.0479773737011,4.066873690000788E-5,0.008993765450300915
231,860.3507541830824,4.051888411962939E-5,0.009034284334420545
232,859.6513915138062,4.061911761179181E-5,0.009074903452032337
233,858.9739984789395,4.0157126150838536E-5,0.009115060578183176
234,858.2731986594199,4.007228734313323E-5,0.00915513286552631
235,857.5855549490793,3.9796396866466295E-5,0.009194929262392777
236,856.890881407966,4.012532585841416E-5,0.00923505458825119
237,856.1686309447194,4.069865505354601E-5,0.009275753243304737
238,855.4462379854356,4.046341578648281E-5,0.00931621665909122
239,854.7278111084163,4.076264624735509E-5,0.009356979305338575
240,854.0084296555465,4.054696974719174E-5,0.009397526275085766
241,853.2928677645145,4.0738286844226664E-5,0.009438264561929994
242,852.5464078637449,4.08241601480232E-5,0.009479088722078017
243,851.7819362841682,4.123939490580398E-5,0.009520328116983822
244,851.0452163013642,4.101112549117012E-5,0.009561339242474992
245,850.3121268251831,4.099160631636986E-5,0.009602330848791361
246,849.5507668924238,4.129671796353923E-5,0.0096436275667549
247,848.7846760331172,4.110953407967177E-5,0.009684737100834572
248,848.0164193479387,4.123181853796031E-5,0.009725968919372533
249,847.2743074796513,4.1482962403890366E-5,0.009767451881776423
250,846.5425428166975,4.0624693289731955E-5,0.009808076575066155
251,845.7935697276097,4.0247201677594055E-5,0.009848323776743748
252,845.0239793128459,4.011563980382213E-5,0.00988843941654757
253,844.2680780946074,4.054858521717804E-5,0.009928988001764748
254,843.5271453365916,4.0944060448603615E-5,0.009969932062213352
255,842.7933621430384,4.0899394952170716E-5,0.010010831457165522
256,842.08149636402,4.051204686452641E-5,0.010051343504030048
257,841.397384993546,3.9949376423272645E-5,0.01009129288045332
258,840.7142956787636,3.9539365719043986E-5,0.010130832246172363
259,840.021472224141,4.003143967077911E-5,0.010170863685843141
260,839.3259428771023,4.0045167458180034E-5,0.010210908853301321
261,838.6188279444123,4.00693415111478E-5,0.010250978194812469
262,837.9122672851926,3.9628825698883345E-5,0.010290607020511353
263,837.2101340272242,3.9404330222423E-5,0.010330011350733775
264,836.4887528633489,3.953491192638238E-5,0.010369546262660158
265,835.7537431256917,3.9829739572584185E-5,0.010409376002232741
266,834.9778755466939,4.01726004530827E-5,0.010449548602685824
267,834.208456227879,4.001482034847212E-5,0.010489563423034297
268,833.4390663388858,3.954436325349506E-5,0.010529107786287793
269,832.6674160510784,3.989485491841811E-5,0.01056900264120621
270,831.8798575960035,4.0152382849017094E-5,0.010609155024055227
271,831.0789431339663,3.9875243795862194E-5,0.010649030267851089
272,830.2689900012601,4.0327454511821546E-5,0.01068935772236291
273,829.5016368179129,3.956202781570022E-5,0.010728919750178612
274,828.7453960763344,3.9638144984137525E-5,0.01076855789516275
275,827.9712924680442,4.023928493421372E-5,0.010808797180096964
276,827.2021139763546,4.036678778996014E-5,0.010849163967886924
277,826.4058807166533,4.019714190454982E-5,0.010889361109791473
278,825.5927285935524,4.06846558215887E-5,0.010930045765613062
279,824.7703822722038,4.049681174386604E-5,0.010970542577356928
280,823.9557591932337,4.014389120039415E-5,0.011010686468557322
281,823.129592429811,4.012776949137777E-5,0.0110508142380487
282,822.3191415987282,4.014569563998456E-5,0.011090959933688685
283,821.4802228240549,4.031692609487288E-5,0.011131276859783558
284,820.6382476296159,4.004671425282017E-5,0.011171323574036378
285,819.8155176621818,4.0500245525980584E-5,0.011211823819562358
286,819.0010383577128,4.1031891689960165E-5,0.011252855711252318
287,818.2105951709937,4.124437610279222E-5,0.01129410008735511
288,817.4566038761317,4.1284436753558246E-5,0.011335384524108668
289,816.7245365713061,4.140433132440059E-5,0.011376788855433069
290,815.9606288458712,4.159632781454714E-5,0.011418385183247616
291,815.1894565661155,4.154677858360877E-5,0.011459931961831225
292,814.4437708309292,4.100320682597102E-5,0.011500935168657196
293,813.7139911191248,4.100279677388976E-5,0.011541937965431086
294,812.9963776355403,4.081400244487155E-5,0.011582751967875957
295,812.304486091195,4.1148388190480736E-5,0.011623900356066438
296,811.575387135754,4.081247987151385E-5,0.011664712835937951
297,810.8225246241616,4.125196741713611E-5,0.011705964803355088
298,810.0917347025363,4.156193873833852E-5,0.011747526742093426
299,809.3700328048611,4.139513608569746E-5,0.011788921878179124
300,808.7043169243955,4.153601910674519E-5,0.01183045789728587
301,808.0657384639352,4.167044473841595E-5,0.011872128342024285
302,807.4112537973433,4.154071868330214E-5,0.011913669060707587
303,806.7483269923641,4.150323333578282E-5,0.01195517229404337
304,806.1028091917339,4.1309980619111914E-5,0.011996482274662481
305,805.4525133573777,4.148622914335577E-5,0.012037968503805837
306,804.8212483096177,4.137546212878047E-5,0.012079343965934618
307,804.1691693135489,4.1598387320893915E-5,0.012120942353255513
308,803.5162099696013,4.180511594881998E-5,0.012162747469204333
309,802.8792654092247,4.165463077733797E-5,0.012204402099981672
310,802.2132896027398,4.160278563807933E-5,0.01224600488561975
311,801.5441814412565,4.14701560418519E-5,0.012287475041661602
312,800.9255751573339,4.1486983890712964E-5,0.012328962025552314
