#t,ESS,tempDiff,temp
0,999.9999999999848,0.0,0.0
1,999.9897959443397,2.9838158892009716E-5,2.9838158892009716E-5
2,999.9591585565475,2.977160093230169E-5,5.9609759824311405E-5
3,999.9086770032644,2.939834878335211E-5,8.900810860766351E-5
4,999.8380231791812,2.9347865480489985E-5,1.183559740881535E-4
5,999.7480029545442,2.9331019126406128E-5,1.4768699321455962E-4
6,999.6392737405401,2.9177882494936663E-5,1.7686487570949628E-4
7,999.5110960219747,2.9175645514739383E-5,2.0604052122423567E-4
8,999.3619580304161,2.9412925645806145E-5,2.354534468700418E-4
9,999.1946238047959,2.9213809177202226E-5,2.64667256047244E-4
10,999.0132624412755,2.8907275582108385E-5,2.935745316293524E-4
11,998.8138089729753,2.8803894797076558E-5,3.2237842642642895E-4
12,998.600430189193,2.8619704561228334E-5,3.509981309876573E-4
13,998.368864707695,2.8482004183737554E-5,3.794801351713948E-4
14,998.117918691719,2.8672569741383086E-5,4.081527049127779E-4
15,997.8476010929775,2.8991754466847135E-5,4.3714445937962504E-4
16,997.5610855041825,2.910058462705488E-5,4.662450440066799E-4
17,997.2558252622318,2.9151598462506083E-5,4.95396642469186E-4
18,996.9343915405722,2.930904917330372E-5,5.247056916424897E-4
19,996.5924991101175,2.9336647662255835E-5,5.540423393047456E-4
20,996.2372827292129,2.9208746621797304E-5,5.832510859265429E-4
21,995.8598268167322,2.944080607112076E-5,6.126918919976637E-4
22,995.4653044505949,2.9587237001324178E-5,6.422791289989879E-4
23,995.0547755075278,2.9804007221328117E-5,6.72083136220316E-4
24,994.6358258607828,2.9295391786256188E-5,7.013785280065722E-4
25,994.1974438759519,2.9571121100527635E-5,7.309496491070998E-4
26,993.7417106686038,2.975247145259947E-5,7.607021205596993E-4
27,993.2683414457256,2.967878974677043E-5,7.903809103064698E-4
28,992.7798635581635,2.9687325347863737E-5,8.200682356543335E-4
29,992.2717498311076,2.98708979964044E-5,8.499391336507379E-4
30,991.7513958242756,2.9957795558271385E-5,8.798969292090092E-4
31,991.2166684831948,3.022912716926578E-5,9.10126056378275E-4
32,990.6743202550972,2.9971459660855523E-5,9.400975160391306E-4
33,990.1262557271388,2.9791739905817428E-5,9.69889255944948E-4
34,989.5610047456573,2.9926549322324323E-5,9.998158052672724E-4
35,988.9872165786081,3.0098158985471746E-5,0.0010299139642527442
36,988.402549560725,2.9983608532897965E-5,0.0010598975727856422
37,987.8068688835626,2.9714514961753683E-5,0.001089612087747396
38,987.1949470973332,2.981782278921541E-5,0.0011194299105366113
39,986.5745495124428,2.982090668006075E-5,0.001149250817216672
40,985.9463457961626,2.972932291889354E-5,0.0011789801401355655
41,985.2956198291,2.9930398018415094E-5,0.0012089105381539807
42,984.6298417052706,2.992215203389683E-5,0.0012388326901878776
43,983.9594204410822,2.9793053566871222E-5,0.0012686257437547488
44,983.2754688166168,2.9670285412384616E-5,0.0012982960291671333
45,982.5791062272741,2.9461688946490983E-5,0.0013277577181136243
46,981.8763551417095,2.950224571643632E-5,0.0013572599638300607
47,981.1650003304104,2.9422406385883455E-5,0.001386682370215944
48,980.433931872296,2.9406680906651852E-5,0.0014160890511225959
49,979.6864372819675,2.931690233107629E-5,0.0014454059534536722
50,978.9367030402825,2.9079038547097047E-5,0.0014744849920007694
51,978.183776337828,2.8919446336530854E-5,0.0015034044383373001
52,977.424412076627,2.879658873195836E-5,0.0015322010270692585
53,976.6460884340179,2.9123238509244095E-5,0.0015613242655785026
54,975.8466865898273,2.8956926815878084E-5,0.0015902811923943806
55,975.0401568087666,2.8789652670496656E-5,0.0016190708450648772
56,974.2304991271942,2.873350658246885E-5,0.0016478043516473461
57,973.4089597452515,2.8403006205724434E-5,0.0016762073578530706
58,972.5800312822622,2.832826908236468E-5,0.0017045356269354353
59,971.7432745879948,2.8401141358105103E-5,0.0017329367682935404
60,970.917735483249,2.8282439856438596E-5,0.0017612192081499789
61,970.07990599671,2.831259279982723E-5,0.001789531800949806
62,969.2296699049583,2.841079065131672E-5,0.0018179425916011228
63,968.3810376544632,2.8132266571530628E-5,0.0018460748581726534
64,967.5104905993287,2.820584667681845E-5,0.0018742807048494718
65,966.6302945188066,2.8263163215351628E-5,0.0019025438680648234
66,965.7275346279009,2.843466093807594E-5,0.0019309785290028993
67,964.817656164564,2.862330050687865E-5,0.0019596018295097778
68,963.903822676112,2.864489125712634E-5,0.001988246720766904
69,962.9821893392059,2.8684451267623884E-5,0.0020169311720345277
70,962.0628168527268,2.8731207595557836E-5,0.0020456623796300854
71,961.1265240885366,2.895532933716892E-5,0.002074617708967254
72,960.178795242995,2.910447846256763E-5,0.002103722187429822
73,959.2282837748509,2.9097829365450228E-5,0.002132820016795272
74,958.2726107714418,2.907074777458906E-5,0.002161890764569861
75,957.31440757779,2.91429499104656E-5,0.0021910337144803267
76,956.3384423345593,2.91243172086937E-5,0.00222015803168902
77,955.3489846890574,2.9373205751596284E-5,0.0022495312374406166
78,954.3607174145782,2.9145671543631965E-5,0.0022786769089842484
79,953.3496930162418,2.9158011357545036E-5,0.0023078349203417936
80,952.337681896813,2.891282750581975E-5,0.0023367477478476134
81,951.3014570452975,2.9171235941727086E-5,0.0023659189837893406
82,950.2494071595186,2.9171903059913936E-5,0.0023950908868492545
83,949.1740855842456,2.918582118418119E-5,0.0024242767080334356
84,948.1048472430525,2.9156489670294686E-5,0.00245343319770373
85,947.027055353995,2.8934025863066925E-5,0.002482367223566797
86,945.9440692248662,2.90395448410222E-5,0.0025114067684078195
87,944.8736984759108,2.87308893953035E-5,0.0025401376578031228
88,943.801004214014,2.8759912940670107E-5,0.002568897570743793
89,942.7398030015926,2.843560726325369E-5,0.002597333178007047
90,941.6713685581433,2.8676366408856325E-5,0.0026260095444159033
91,940.5895956475609,2.8731947402252518E-5,0.002654741491818156
92,939.5173024695378,2.857508663444048E-5,0.0026833165784525964
93,938.4354058733699,2.858539289113762E-5,0.0027119019713437342
94,937.3617609818259,2.830692197511554E-5,0.00274020889331885
95,936.3037579638864,2.810323959976273E-5,0.0027683121329186125
96,935.2368151169703,2.8124055125509636E-5,0.002796436188044122
97,934.1780765066235,2.795204880382902E-5,0.002824388236847951
98,933.1343138942527,2.7964926775094766E-5,0.002852353163623046
99,932.0968246751752,2.7777137692251015E-5,0.0028801303013152968
100,931.0518090984175,2.7826831852715292E-5,0.0029079571331680123
101,930.0109667840356,2.777747673273081E-5,0.002935734609900743
102,928.9616698467379,2.7956263356895548E-5,0.0029636908732576387
103,927.8983670725545,2.7877989660455377E-5,0.002991568862918094
104,926.8269464140873,2.7955844507810324E-5,0.0030195247074259043
105,925.7487456101253,2.8114732751806042E-5,0.0030476394401777102
106,924.6756560057185,2.8109065782342472E-5,0.0030757485059600526
107,923.5785463099367,2.8186752252977402E-5,0.00310393525821303
108,922.4733424840356,2.8034132419363445E-5,0.0031319693906323933
109,921.3564323614736,2.789083853472553E-5,0.003159860229167119
110,920.2357618240529,2.7980397035135566E-5,0.0031878406262022545
111,919.1080780176837,2.8017147110542416E-5,0.003215857773312797
112,917.9871363538482,2.7989488382856857E-5,0.0032438472616956537
113,916.8764008405327,2.8072602718587335E-5,0.003271919864414241
114,915.7511304066153,2.813958254825743E-5,0.0033000594469624984
115,914.6008287751506,2.8444031699350563E-5,0.003328503478661849
116,913.4524937862042,2.8369259262671596E-5,0.0033568727379245204
117,912.2928358793095,2.8331169667396984E-5,0.0033852039075919172
118,911.12224862518,2.8388868089558072E-5,0.0034135927756814752
119,909.944075180618,2.8385325855036964E-5,0.0034419781015365123
120,908.745798832484,2.834496638722006E-5,0.0034703230679237326
121,907.5436151135193,2.8207355578040034E-5,0.003498530423501773
122,906.3189551047617,2.8356889918832006E-5,0.003526887313420605
123,905.107307817537,2.8434402821019585E-5,0.0035553217162416243
124,903.8969894850676,2.832644180184608E-5,0.0035836481580434703
125,902.6859628742271,2.8322672178510766E-5,0.003611970830221981
126,901.4619199550281,2.8341579972113817E-5,0.0036403124101940946
127,900.2029527272058,2.8719676284710345E-5,0.003669032086478805
128,898.9407328578344,2.855535186957053E-5,0.0036975874383483754
129,897.6858681657446,2.8544683980552355E-5,0.003726132122328928
130,896.40463176838,2.8665009544542685E-5,0.0037547971318734707
131,895.1162795948225,2.890683181558836E-5,0.003783703963689059
132,893.8312002407429,2.8925545508982914E-5,0.003812629509198042
133,892.5651841298486,2.89783917852877E-5,0.0038416079009833295
134,891.3239710755317,2.8944001560325263E-5,0.0038705519025436547
135,890.1080954893948,2.8848184600675192E-5,0.00389940008714433
136,888.895086018821,2.8726095714054398E-5,0.003928126182858384
137,887.6806528808817,2.8982522150942114E-5,0.003957108705009326
138,886.451489045241,2.9094605409650942E-5,0.003986203310418977
139,885.2129158089831,2.933629100486512E-5,0.0040155396014238415
140,883.9840275987683,2.9262529727895394E-5,0.004044802131151737
141,882.7694104713979,2.9134007125483593E-5,0.004073936138277221
142,881.5761606530805,2.9216454421163255E-5,0.004103152592698384
143,880.3970761812667,2.898736971200577E-5,0.00413213996241039
144,879.2257129042249,2.8759499996220012E-5,0.00416089946240661
145,878.0727403841338,2.8703876650153826E-5,0.0041896033390567645
146,876.9543990595538,2.892298952780638E-5,0.004218526328584571
147,875.8380659686305,2.890286637095968E-5,0.0042474291949555305
148,874.711224878634,2.8843749209380602E-5,0.004276272944164911
149,873.5689966403726,2.8736453059738384E-5,0.00430500939722465
150,872.4444462020623,2.8719829253197438E-5,0.0043337292264778475
151,871.2894577928511,2.8744751646630057E-5,0.004362473978124478
152,870.1101739631,2.881411061715221E-5,0.00439128808874163
153,868.931776180058,2.8795362592227508E-5,0.0044200834513338574
154,867.7528674790972,2.8756817665590567E-5,0.004448840268999448
155,866.5694431596544,2.871322687061756E-5,0.004477553495870065
156,865.4008603063578,2.889838065266486E-5,0.00450645187652273
157,864.232225904503,2.902488485680477E-5,0.004535476761379535
158,863.0611225580718,2.9155894663412322E-5,0.004564632656042947
159,861.8789833873926,2.9133390195739154E-5,0.0045937660462386865
160,860.6968287901888,2.9033993679665913E-5,0.004622800039918352
161,859.5018287259112,2.8984551639083756E-5,0.004651784591557436
162,858.2875727271648,2.9080991248285472E-5,0.004680865582805721
163,857.0547459152048,2.90917866311665E-5,0.004709957369436888
164,855.8397519114894,2.8925767062425413E-5,0.004738883136499314
165,854.6252604405431,2.900174030242512E-5,0.004767884876801739
166,853.4136801963638,2.8907729890885158E-5,0.004796792606692624
167,852.2200490923642,2.8840350687910052E-5,0.004825632957380534
168,851.0357213425166,2.8416842397223108E-5,0.004854049799777757
169,849.8575501451131,2.8422200174389983E-5,0.004882471999952147
170,848.6548912142562,2.8411800973882384E-5,0.00491088380092603
171,847.4748560956848,2.82229822926832E-5,0.004939106783218713
172,846.2705349071114,2.8601270130843905E-5,0.004967708053349557
173,845.0910969490354,2.8458407409596657E-5,0.004996166460759154
174,843.8953490073353,2.8456762603881177E-5,0.005024623223363035
175,842.6965971554278,2.8510696147667794E-5,0.005053133919510703
176,841.5033567153534,2.8623941792674534E-5,0.005081757861303378
177,840.2804150679816,2.8703330410598397E-5,0.0051104611917139765
178,839.0831980593156,2.8476983310936117E-5,0.005138938175024913
179,837.8656454626016,2.880187600518129E-5,0.005167740051030094
180,836.6421404571789,2.8945945783917876E-5,0.005196685996814012
181,835.3896862996111,2.914414728552216E-5,0.005225830144099534
182,834.1449256277804,2.9197152467686566E-5,0.005255027296567221
183,832.9000257062377,2.9289639175546794E-5,0.005284316935742768
184,831.6570069499077,2.93364059250655E-5,0.0053136533416678336
185,830.4372179706165,2.9101727345993172E-5,0.005342755069013827
186,829.2315076624244,2.9004367642544634E-5,0.005371759436656372
187,828.048630139466,2.8967863606649686E-5,0.005400727300263021
188,826.8566027600245,2.8892972794574536E-5,0.005429620273057596
189,825.6680277005006,2.901145371675584E-5,0.005458631726774352
190,824.451293764163,2.8982700579942032E-5,0.005487614427354294
191,823.2327064347262,2.9110093627197592E-5,0.005516724520981492
192,822.0437207228241,2.922622383854612E-5,0.005545950744820038
193,820.8340894132301,2.9081890077415463E-5,0.005575032634897454
194,819.6132931903554,2.9034982728358095E-5,0.0056040676176258115
195,818.371760075794,2.9230959901985317E-5,0.0056332985775277965
196,817.1520532127379,2.908080492339817E-5,0.005662379382451194
197,815.9263167762226,2.9149987784320578E-5,0.005691529370235515
198,814.7108462750778,2.927757439156586E-5,0.005720806944627081
199,813.522687494607,2.9042197218994622E-5,0.005749849141846075
200,812.3383434423852,2.919959405978005E-5,0.0057790487359058555
201,811.173032162276,2.9245840559419905E-5,0.005808294576465275
202,809.9951024245083,2.9279521426577594E-5,0.0058375740978918525
203,808.8423686174782,2.900637529298438E-5,0.0058665804731848365
204,807.6927317570563,2.8820459376662146E-5,0.005895400932561499
205,806.5333085067872,2.8649752015040906E-5,0.00592405068457654
206,805.343062277455,2.8612122784343043E-5,0.005952662807360883
207,804.1312151637663,2.862213219042536E-5,0.005981284939551308
208,802.9182806547441,2.8872357401987675E-5,0.006010157296953296
209,801.7162176551617,2.878903700374084E-5,0.006038946333957036
210,800.5025145651383,2.9002659342876197E-5,0.006067948993299913
211,799.3137008274091,2.8737056321001146E-5,0.006096686049620914
212,798.119237368017,2.892550140355463E-5,0.006125611551024469
213,796.9220353956981,2.8777029503957673E-5,0.006154388580528427
214,795.7290285257315,2.875402114509802E-5,0.006183142601673525
215,794.5578341868542,2.8825690433519777E-5,0.006211968292107045
216,793.3883330894733,2.895102003660783E-5,0.006240919312143653
217,792.2091450059999,2.8741322452611245E-5,0.006269660634596264
218,791.0176853415281,2.8766077475866507E-5,0.006298426712072131
219,789.8240823026017,2.85907361993576E-5,0.006327017448271488
220,788.6390376529715,2.8511475571630662E-5,0.006355528923843119
221,787.4628533064927,2.829275173395318E-5,0.006383821675577072
222,786.2894158052413,2.8491872873571442E-5,0.006412313548450644
223,785.1099570889006,2.8481927233116423E-5,0.00644079547568376
224,783.9727740515824,2.841566269942179E-5,0.0064692111383831815
225,782.8521934394757,2.8419706532009002E-5,0.006497630844915191
226,781.7249823180459,2.8510095412028077E-5,0.006526140940327219
227,780.5895007232325,2.876552812466621E-5,0.006554906468451885
228,779.4586102682405,2.8625548815598166E-5,0.006583532017267483
229,778.3234116019177,2.8587250615969406E-5,0.006612119267883452
230,777.2223515067607,2.8182869521013895E-5,0.006640302137404466
231,776.1185573733139,2.807537552081304E-5,0.006668377512925279
232,775.0103484866613,2.8181470079888132E-5,0.006696558983005167
233,773.9141178069026,2.8473597817427407E-5,0.006725032580822595
234,772.8227377258738,2.8240403595021963E-5,0.006753272984417616
235,771.7369530252306,2.826675330870379E-5,0.00678153973772632
236,770.6464876088319,2.834917626600055E-5,0.00680988891399232
237,769.5533058441887,2.8270443419229654E-5,0.00683815935741155
238,768.4749768090363,2.778071846915674E-5,0.006865940075880706
239,767.4320414514425,2.7685045128512005E-5,0.006893625121009219
240,766.3963472769088,2.766251690316962E-5,0.006921287637912389
241,765.3597228745676,2.7532117561345407E-5,0.006948819755473734
242,764.3150655913144,2.7816658291264994E-5,0.006976636413764999
243,763.2688514865997,2.7905993845277164E-5,0.007004542407610276
244,762.226048838037,2.8125348535634235E-5,0.00703266775614591
245,761.1737946660492,2.811195442846611E-5,0.007060779710574376
246,760.1074003981478,2.805874885165745E-5,0.007088838459426034
247,759.041758519494,2.791233421253273E-5,0.007116750793638566
248,757.9720155276294,2.780816082697254E-5,0.007144558954465538
249,756.8927986979546,2.7917267577885265E-5,0.007172476222043423
250,755.8134419896592,2.7982447602507512E-5,0.007200458669645931
251,754.7283143222479,2.778953304025937E-5,0.00722824820268619
252,753.6282058017106,2.8160767265866975E-5,0.007256408969952058
253,752.5312030275358,2.8112651458595813E-5,0.007284521621410653
254,751.3833350707386,2.8077836924401678E-5,0.007312599458335055
255,750.2365967483217,2.792992620145067E-5,0.007340529384536506
256,749.0750033165192,2.8082207009366097E-5,0.007368611591545872
257,747.9380604738934,2.8001428160532208E-5,0.007396613019706404
258,746.8243540114771,2.8142837640372286E-5,0.007424755857346776
259,745.6822461148016,2.831142602959361E-5,0.00745306728337637
260,744.5204978722695,2.846019742474607E-5,0.007481527480801116
261,743.347719082597,2.8469409148134906E-5,0.007509996889949251
262,742.1868139383577,2.8262499674318487E-5,0.00753825938962357
263,741.0313132959685,2.82663801439551E-5,0.007566525769767525
264,739.8875698930175,2.8484764786970566E-5,0.007595010534554495
265,738.7524154802902,2.843297301427494E-5,0.007623443507568771
266,737.6407759258379,2.8623881755424325E-5,0.007652067389324195
267,736.5388794690264,2.8415822260224554E-5,0.007680483211584419
268,735.422022114765,2.860510549320456E-5,0.007709088317077624
269,734.2965241284925,2.8412346199029986E-5,0.007737500663276654
270,733.191356272132,2.843561303581108E-5,0.007765936276312464
271,732.1213726818715,2.8188255352264722E-5,0.007794124531664729
272,731.0717960391216,2.810362256390845E-5,0.007822228154228637
273,730.0493035182051,2.816812223529856E-5,0.007850396276463936
274,729.0426432791884,2.8391420019875928E-5,0.007878787696483812
275,728.0638363912229,2.8211456545979805E-5,0.007906999153029792
276,727.1054969085767,2.840880694886188E-5,0.007935407959978654
277,726.1707516629124,2.835420963922402E-5,0.007963762169617878
278,725.2486048154884,2.837103055577982E-5,0.007992133200173657
279,724.3311863763607,2.8404752982347323E-5,0.008020537953156005
280,723.4062775783011,2.852136702595113E-5,0.008049059320181956
281,722.4473693413886,2.877426913590083E-5,0.008077833589317858
282,721.5022531527063,2.8643466846727102E-5,0.008106477056164584
283,720.5243754313522,2.8646246717796966E-5,0.008135123302882382
284,719.5767533375038,2.8594281837430395E-5,0.008163717584719812
285,718.6241889822131,2.867853645295644E-5,0.008192396121172767
286,717.6675737888786,2.859004965191308E-5,0.00822098617082468
287,716.704684633,2.8598597813342225E-5,0.008249584768638022
288,715.7450734747309,2.855393890615939E-5,0.008278138707544182
289,714.791478521115,2.8364354205560066E-5,0.008306503061749742
290,713.823026280133,2.8682651716496637E-5,0.00833518571346624
291,712.854150322211,2.8368603727315706E-5,0.008363554317193555
292,711.8638580295543,2.827400366237911E-5,0.008391828320855934
293,710.8710544847423,2.836920960678923E-5,0.008420197530462723
294,709.8740454049811,2.8461722741964537E-5,0.008448659253204687
295,708.872994328796,2.8498089065933757E-5,0.00847715734227062
296,707.8516266542312,2.859170793109007E-5,0.00850574905020171
297,706.8086719892511,2.8810950395542163E-5,0.008534560000597253
298,705.8000272973965,2.8836874870616954E-5,0.008563396875467871
299,704.7777111110988,2.8699438780435896E-5,0.008592096314248307
300,703.7642509049975,2.8621265811230017E-5,0.008620717580059537
301,702.7344233674511,2.8560315366241454E-5,0.008649277895425779
302,701.7015617093491,2.848540343046432E-5,0.008677763298856243
303,700.6622374446291,2.8844758899328765E-5,0.008706608057755572
304,699.634028977695,2.8886271065666543E-5,0.00873549432882124
305,698.6147404012763,2.883582313045337E-5,0.008764330151951693
306,697.6466139228038,2.892887780486311E-5,0.008793259029756556
307,696.6625385391832,2.8884890207608895E-5,0.008822143919964165
308,695.6255668579072,2.8988706223874554E-5,0.00885113262618804
309,694.5916413325422,2.8440106125677113E-5,0.008879572732313717
310,693.5891345454091,2.8410187010765944E-5,0.008907982919324483
