#t,ESS,tempDiff,temp
0,200.00000000000065,0.0,0.0
1,199.99981370947177,7.552338832043296E-6,7.552338832043296E-6
2,199.99927093970223,7.512565403477103E-6,1.5064904235520399E-5
3,199.99836370574542,7.500480747510997E-6,2.2565384983031397E-5
4,199.99709123727067,7.460255648362423E-6,3.002564063139382E-5
5,199.9954933015608,7.388326137549964E-6,3.7413966768943785E-5
6,199.99352716472342,7.5023335402610575E-6,4.4916300309204846E-5
7,199.9911758450777,7.587506616485347E-6,5.2503806925690195E-5
8,199.98846666819702,7.550365967964719E-6,6.0054172893654916E-5
9,199.98541487550992,7.562185906032982E-6,6.76163587996879E-5
10,199.98204400619235,7.664354179745797E-6,7.52807129794337E-5
11,199.97848907768943,7.359007435889011E-6,8.263972041532271E-5
12,199.97462324858625,7.386573673604647E-6,9.002629408892736E-5
13,199.97048251624858,7.442131829848853E-6,9.746842591877621E-5
14,199.96607687474818,7.438582548851546E-6,1.0490700846762775E-4
15,199.9615294226045,7.466882330093872E-6,1.1237389079772163E-4
16,199.95669946231766,7.399106960142955E-6,1.1977299775786459E-4
17,199.95153587264528,7.4487997086469925E-6,1.272217974665116E-4
18,199.94612382001435,7.477965839524076E-6,1.3469976330603565E-4
19,199.9404261217764,7.593129614677766E-6,1.4229289292071342E-4
20,199.93439084615883,7.583622560508488E-6,1.498765154812219E-4
21,199.927999376216,7.537210651429472E-6,1.5741372613265137E-4
22,199.9214219486955,7.52926907706375E-6,1.6494299520971513E-4
23,199.91441477417985,7.666612441611906E-6,1.7260960765132704E-4
24,199.90729725651104,7.467107479390066E-6,1.800767151307171E-4
25,199.90009162130602,7.452513019564764E-6,1.8752922815028187E-4
26,199.89275061331824,7.4690682511583235E-6,1.949982964014402E-4
27,199.88511841783767,7.4780322589827185E-6,2.0247632866042292E-4
28,199.87705317595226,7.546573027183294E-6,2.1002290168760623E-4
29,199.86887469934715,7.3859410395318835E-6,2.1740884272713812E-4
30,199.86026398933376,7.3679836269660505E-6,2.2477682635410417E-4
31,199.85153362450203,7.370826309140698E-6,2.3214765266324486E-4
32,199.84269936048142,7.31644861547386E-6,2.3946410127871872E-4
33,199.8335441194364,7.404343927998093E-6,2.4686844520671684E-4
34,199.82432184715478,7.371202860388412E-6,2.5423964806710526E-4
35,199.81499335838907,7.286643828801481E-6,2.6152629189590674E-4
36,199.80535350612536,7.269805475264847E-6,2.687960973711716E-4
37,199.7957404561065,7.305444821254667E-6,2.7610154219242627E-4
38,199.78590988903346,7.269576907638056E-6,2.833711191000643E-4
39,199.77585790756362,7.334889685437435E-6,2.9070600878550174E-4
40,199.7659434576896,7.283491851878052E-6,2.979895006373798E-4
41,199.75532812026353,7.4146033705746715E-6,3.0540410400795444E-4
42,199.7445300211662,7.342922847061343E-6,3.1274702685501576E-4
43,199.73340338283907,7.379534240047628E-6,3.201265610950634E-4
44,199.722095484446,7.304113294997277E-6,3.2743067439006064E-4
45,199.71017448957713,7.353758070453386E-6,3.3478443246051404E-4
46,199.69815207627798,7.388764686493451E-6,3.4217319714700746E-4
47,199.68593923857026,7.470495051323133E-6,3.496436921983306E-4
48,199.67379981958456,7.419864522335682E-6,3.5706355672066633E-4
49,199.6612032983691,7.40121873228044E-6,3.6446477545294675E-4
50,199.64794301010886,7.4777317334465475E-6,3.719425071863933E-4
51,199.63450829345214,7.488315526340284E-6,3.794308227127336E-4
52,199.6210811620998,7.5486300101705326E-6,3.869794527229041E-4
53,199.607236317664,7.535295900204742E-6,3.9451474862310887E-4
54,199.59318222668333,7.637204544771203E-6,4.021519531678801E-4
55,199.57884657132766,7.601682870052087E-6,4.097536360379322E-4
56,199.5642158458229,7.517979745755566E-6,4.1727161578368775E-4
57,199.54965037504093,7.390012919641073E-6,4.246616287033288E-4
58,199.53461191663487,7.479186310139303E-6,4.3214081501346814E-4
59,199.51891317760266,7.5457468286122274E-6,4.3968656184208035E-4
60,199.5028687663828,7.460976640651057E-6,4.471475384827314E-4
61,199.4865191668683,7.489253396303277E-6,4.546367918790347E-4
62,199.47002842704393,7.335541272410088E-6,4.619723331514448E-4
63,199.4530964033413,7.399401505402644E-6,4.6937173465684746E-4
64,199.43537952070085,7.444125820595802E-6,4.7681586047744327E-4
65,199.41733202964656,7.501374066203763E-6,4.8431723454364704E-4
66,199.39904245040717,7.534133063941236E-6,4.918513676075883E-4
67,199.38052509330475,7.493421792415284E-6,4.993447894000036E-4
68,199.3620368490978,7.47710208330054E-6,5.068218914833041E-4
69,199.34348052067648,7.430688647295425E-6,5.142525801305996E-4
70,199.3248101053603,7.4283788175190885E-6,5.216809589481187E-4
71,199.30598586723306,7.3572999665576636E-6,5.290382589146764E-4
72,199.28701768179823,7.309243893263461E-6,5.363475028079399E-4
73,199.26733756232966,7.342448603443145E-6,5.43689951411383E-4
74,199.24758658070272,7.3791666988833365E-6,5.510691181102664E-4
75,199.22756935622775,7.280061496059432E-6,5.583491796063259E-4
76,199.20681177472483,7.372133993978914E-6,5.657213136003048E-4
77,199.1859647333299,7.446971799970647E-6,5.731682854002754E-4
78,199.1651431573885,7.404102750847803E-6,5.805723881511232E-4
79,199.14347705734076,7.4357910711183935E-6,5.880081792222416E-4
80,199.1221285540543,7.418433808929817E-6,5.954266130311714E-4
81,199.1006743195709,7.3333509063398656E-6,6.027599639375113E-4
82,199.07924129253962,7.343516210381568E-6,6.101034801478929E-4
83,199.0581581848317,7.167541513305881E-6,6.172710216611987E-4
84,199.0370910850987,7.0755383781120704E-6,6.243465600393108E-4
85,199.01546916909112,7.197561801019967E-6,6.315441218403308E-4
86,198.99333989864056,7.251435726983345E-6,6.387955575673142E-4
87,198.97111229293245,7.239778708406429E-6,6.460353362757206E-4
88,198.94914962895922,7.219414932136457E-6,6.53254751207857E-4
89,198.9268667988967,7.2501250219347765E-6,6.605048762297918E-4
90,198.90348853203815,7.367506356811563E-6,6.678723825866034E-4
91,198.87997187936116,7.285354172466797E-6,6.751577367590702E-4
92,198.8565078626064,7.294922174536102E-6,6.824526589336063E-4
93,198.8330424270441,7.3431436038644555E-6,6.897958025374707E-4
94,198.80888909163812,7.39893928205234E-6,6.971947418195231E-4
95,198.78481229869874,7.421738858228118E-6,7.046164806777512E-4
96,198.75980710872145,7.656491710124109E-6,7.122729723878753E-4
97,198.73471838806728,7.535588866439318E-6,7.198085612543147E-4
98,198.70975107876095,7.4911544388839725E-6,7.272997156931987E-4
99,198.6851719667146,7.487030785279288E-6,7.34786746478478E-4
100,198.65976860437408,7.523936465748655E-6,7.423106829442266E-4
101,198.63361329527436,7.58535978783793E-6,7.498960427320645E-4
102,198.60659381798544,7.728026267040636E-6,7.576240689991052E-4
103,198.57920689957336,7.746076711912134E-6,7.653701457110173E-4
104,198.55213098965163,7.772697212458107E-6,7.731428429234754E-4
105,198.52467117644906,7.687405401830578E-6,7.80830248325306E-4
106,198.49742603822327,7.735099974585088E-6,7.885653482998911E-4
107,198.47031312691803,7.677956283702291E-6,7.962433045835933E-4
108,198.44266444872255,7.663288391222449E-6,8.039065929748158E-4
109,198.41529354059207,7.554763004671228E-6,8.114613559794871E-4
110,198.387620961169,7.555813079429271E-6,8.190171690589164E-4
111,198.35952224511067,7.544028556119082E-6,8.265611976150355E-4
112,198.33116611023934,7.404458825690257E-6,8.339656564407258E-4
113,198.3032055214471,7.311309068776711E-6,8.412769655095025E-4
114,198.27623570027635,7.312199848751379E-6,8.485891653582539E-4
115,198.24992166573404,7.28584311362636E-6,8.558750084718802E-4
116,198.22307643299536,7.23774703837812E-6,8.631127555102583E-4
117,198.19542541131844,7.36194638100205E-6,8.704747018912604E-4
118,198.16762399805972,7.37799377195566E-6,8.778526956632161E-4
119,198.13938801901796,7.445528741498023E-6,8.852982244047141E-4
120,198.11078180812365,7.4020876299868295E-6,8.927003120347009E-4
121,198.08271410754918,7.291420035582169E-6,8.99991732070283E-4
122,198.05484989404786,7.236182486907605E-6,9.072279145571906E-4
123,198.02632471375432,7.124288848807147E-6,9.143522034059978E-4
124,197.99743279746855,7.173839149658329E-6,9.215260425556561E-4
125,197.9693314411139,6.995685901273612E-6,9.285217284569297E-4
126,197.94095169400128,7.013058727467224E-6,9.35534787184397E-4
127,197.91242700678828,6.988553793027586E-6,9.425233409774246E-4
128,197.88460549446347,6.83970767878717E-6,9.493630486562117E-4
129,197.85610033771945,6.806532041179059E-6,9.561695806973908E-4
130,197.82791190883535,6.829639883180249E-6,9.62999220580571E-4
131,197.79972477904496,6.773988178084928E-6,9.697732087586559E-4
132,197.7712113677766,6.896638300203631E-6,9.766698470588596E-4
133,197.74296414775392,6.80793321984458E-6,9.834777802787042E-4
134,197.71394931781643,6.913829564898981E-6,9.903916098436033E-4
135,197.68534469343223,6.92373350595396E-6,9.973153433495573E-4
136,197.6568085636945,6.960739007118352E-6,0.0010042760823566756
137,197.62814932669815,6.867440715619724E-6,0.0010111435230722953
138,197.59855976020407,6.834328251319E-6,0.0010179778513236142
139,197.56876929416634,6.799000391874615E-6,0.0010247768517154887
140,197.53923672673054,6.697965107382852E-6,0.0010314748168228716
141,197.50959905142295,6.73900958210005E-6,0.0010382138264049717
142,197.47877733721165,6.828918270192841E-6,0.0010450427446751646
143,197.44734395569958,6.8654231165474306E-6,0.001051908167791712
144,197.4147860068523,6.962110838228658E-6,0.0010588702786299407
145,197.38285144326005,6.871512958966448E-6,0.001065741791588907
146,197.35117250337882,6.797024961521998E-6,0.001072538816550429
147,197.31763304008234,6.865302845745766E-6,0.001079404119396175
148,197.28343959422483,6.948893779984671E-6,0.0010863530131761596
149,197.2488003234534,7.038587706924616E-6,0.0010933916008830842
150,197.21418375761303,7.0384348196340326E-6,0.0011004300357027182
151,197.17859922963456,7.1757064937517124E-6,0.0011076057421964699
152,197.14371526251418,7.145622498604143E-6,0.001114751364695074
153,197.10933913570113,7.175594542350223E-6,0.0011219269592374242
154,197.07503394623632,7.149210520327918E-6,0.001129076169757752
155,197.04028622694864,7.164771285809983E-6,0.001136240941043562
156,197.00471024876168,7.247172016099479E-6,0.0011434881130596615
157,196.96944720225844,7.2420604620857015E-6,0.001150730173521747
158,196.93427264379864,7.115386791063502E-6,0.0011578455603128105
159,196.89872052748666,6.98847663149702E-6,0.0011648340369443074
160,196.86294100761387,6.932496024574031E-6,0.0011717665329688816
161,196.8271570924688,6.96257229977683E-6,0.0011787291052686585
162,196.79113835495474,7.048618791187587E-6,0.001185777724059846
163,196.75537980496563,7.001960619742133E-6,0.0011927796846795881
164,196.72127398934134,6.851601122457892E-6,0.001199631285802046
165,196.6879672497285,6.838670131766507E-6,0.0012064699559338125
166,196.65389234514728,6.769738844788998E-6,0.0012132396947786015
167,196.61892580361675,6.793358829326931E-6,0.0012200330536079284
168,196.58493692608332,6.7280552796647626E-6,0.0012267611088875932
169,196.54986466384997,6.796007691190345E-6,0.0012335571165787837
170,196.51443835672612,6.794629825972748E-6,0.0012403517464047564
171,196.4786887758668,6.794383302895332E-6,0.0012471461297076517
172,196.4425747022846,6.813438118147415E-6,0.0012539595678257992
173,196.40656875171305,6.783206038903828E-6,0.001260742773864703
174,196.3697008963867,6.8391104469581606E-6,0.0012675818843116613
175,196.33270179979363,6.875855231920034E-6,0.0012744577395435812
176,196.29577389673847,6.823120321347716E-6,0.001281280859864929
177,196.2584147639292,6.79049523169106E-6,0.00128807135509662
178,196.2220695340277,6.7167647080309185E-6,0.001294788119804651
179,196.18464833788525,6.7592676845669834E-6,0.0013015473874892181
180,196.14674118734334,6.741965586500063E-6,0.0013082893530757182
181,196.10930836803357,6.71869701388139E-6,0.0013150080500895997
182,196.0708138422109,6.882358610298667E-6,0.0013218904086998984
183,196.0292651778646,7.09523600987503E-6,0.0013289856447097734
184,195.98897016324014,7.009341308437578E-6,0.001335994986018211
185,195.94815929043554,6.915975768034643E-6,0.0013429109617862456
186,195.90718420855228,6.8625117172558454E-6,0.0013497734735035015
187,195.86584570270458,6.813951820671409E-6,0.0013565874253241728
188,195.8235695911037,6.843192737457887E-6,0.0013634306180616306
189,195.78108524577837,6.924370618684067E-6,0.0013703549886803148
190,195.73814534969722,6.96783328828085E-6,0.0013773228219685957
191,195.69595795055068,6.681441851913319E-6,0.001384004263820509
192,195.65439199629353,6.629621578414893E-6,0.0013906338853989237
193,195.61253464204833,6.578021667682067E-6,0.0013972119070666058
194,195.57084879728652,6.564389623739025E-6,0.0014037762966903448
195,195.52855777766032,6.560576495178259E-6,0.0014103368731855231
196,195.48554608123905,6.692099254210546E-6,0.0014170289724397336
197,195.44387108889748,6.661474097063992E-6,0.0014236904465367976
198,195.4017934223123,6.697651233292638E-6,0.0014303880977700903
199,195.35992529675423,6.6478895966904685E-6,0.0014370359873667807
200,195.31771398744934,6.699217159783869E-6,0.0014437352045265645
201,195.27681488852951,6.629211608170299E-6,0.001450364416134735
202,195.23458848150892,6.689145466141137E-6,0.001457053561600876
203,195.191422830405,6.784055207871049E-6,0.001463837616808747
204,195.1483861862728,6.76781319346738E-6,0.0014706054300022144
205,195.10534078870958,6.774477837675448E-6,0.0014773799078398899
206,195.06253049410955,6.896722430806868E-6,0.0014842766302706968
207,195.0195230938935,6.9525614204219795E-6,0.0014912291916911189
208,194.97589871528706,7.01231552573505E-6,0.001498241507216854
209,194.9326112417184,6.981805039050957E-6,0.001505223312255905
210,194.89067688286633,6.988794978020314E-6,0.0015122121072339253
211,194.84858248855875,6.967284324007304E-6,0.0015191793915579326
212,194.80731743753367,6.946164907683861E-6,0.0015261255564656166
213,194.76391637087656,7.148234166135885E-6,0.0015332737906317525
214,194.7203339123345,7.179139108315854E-6,0.0015404529297400682
215,194.67703432057687,7.210101627638189E-6,0.0015476630313677065
216,194.63387152790352,7.196132312478372E-6,0.0015548591636801849
217,194.5912147152764,7.20820509900714E-6,0.001562067368779192
218,194.54807095637784,7.150847128990471E-6,0.0015692182159081824
219,194.50525615128447,7.083061753962154E-6,0.0015763012776621446
220,194.46224924597036,7.183294543629173E-6,0.0015834845722057737
221,194.42075277206135,7.137606310362337E-6,0.001590622178516136
222,194.37894406610803,7.065406876914983E-6,0.001597687585393051
223,194.33856342389052,7.028658379243065E-6,0.0016047162437722942
224,194.29747071500034,7.05491131638184E-6,0.001611771155088676
225,194.25666064948226,6.98336531450249E-6,0.0016187545204031785
226,194.2147370948619,7.114656380924191E-6,0.0016258691767841026
227,194.17295006126716,7.124837579535741E-6,0.0016329940143636383
228,194.1310024215054,7.0354741927076175E-6,0.0016400294885563459
229,194.0888715698824,7.078029875801823E-6,0.0016471075184321478
230,194.04526018506402,7.056958052681275E-6,0.001654164476484829
231,194.0015743402653,7.121234187350625E-6,0.0016612857106721797
232,193.95845871940628,7.093599469561457E-6,0.0016683793101417413
233,193.913964293315,7.257146633680391E-6,0.0016756364567754216
234,193.86926544342433,7.323157288815567E-6,0.001682959614064237
235,193.82484936059913,7.246458842163251E-6,0.0016902060729064004
236,193.78104852890536,7.055463173870736E-6,0.0016972615360802711
237,193.73788559544383,7.065971605369697E-6,0.0017043275076856408
238,193.6959104094044,6.897205885563609E-6,0.0017112247135712044
239,193.65481336727996,6.918411718567874E-6,0.0017181431252897724
240,193.61348245411676,6.906737891258292E-6,0.0017250498631810308
241,193.57154091683813,6.9325844986804485E-6,0.0017319824476797112
242,193.530704863932,6.8409891648027334E-6,0.001738823436844514
243,193.49032456164161,6.789314426494269E-6,0.0017456127512710082
244,193.44965329946496,6.876731708662961E-6,0.001752489482979671
245,193.41041823890757,6.806011086012191E-6,0.0017592954940656832
246,193.37049061919018,6.812288443291538E-6,0.0017661077825089748
247,193.33054599686741,6.9306695679148056E-6,0.0017730384520768896
248,193.2906950103566,6.97720500118218E-6,0.0017800156570780719
249,193.25090044475525,7.02174171025995E-6,0.0017870373987883318
250,193.20933514450635,7.033655987826422E-6,0.0017940710547761582
251,193.1679254871306,6.989139729021417E-6,0.0018010601945051795
252,193.1259425016124,7.027554975143485E-6,0.001808087749480323
253,193.08412792226636,7.045874035839735E-6,0.0018151336235161628
254,193.0429703911104,6.996252631668222E-6,0.001822129876147831
255,193.0032495433156,6.8973085131382085E-6,0.0018290271846609692
256,192.9622058336345,7.0431964529531755E-6,0.0018360703811139225
257,192.9210112819861,6.947213690389212E-6,0.0018430175948043117
258,192.88182208948882,6.762330311525481E-6,0.0018497799251158372
259,192.84223362860723,6.73516795592186E-6,0.001856515093071759
260,192.80177912049732,6.759542360321071E-6,0.00186327463543208
261,192.76195366988378,6.759889082255177E-6,0.0018700345245143352
262,192.72125780332152,6.752288770114161E-6,0.0018767868132844494
263,192.67998008956278,6.732190486047385E-6,0.0018835190037704969
264,192.64010218007834,6.711228270561557E-6,0.0018902302320410584
265,192.60109780839682,6.639703382445815E-6,0.001896869935423504
266,192.5613477252165,6.649353919066109E-6,0.0019035192893425703
267,192.52097691391498,6.725025582115384E-6,0.0019102443149246857
268,192.48151416755937,6.7569611012766106E-6,0.0019170012760259623
269,192.44292543592817,6.67456723247635E-6,0.0019236758432584387
270,192.403791444453,6.766144752335438E-6,0.001930441988010774
271,192.36407481550478,6.786042762629147E-6,0.0019372280307734032
272,192.3234423060995,6.868809836298181E-6,0.0019440968406097014
273,192.2826613777975,6.955589650357022E-6,0.0019510524302600585
274,192.2428724630108,6.8379250474198955E-6,0.001957890355307478
275,192.20303929744028,6.832853223989195E-6,0.0019647232085314675
276,192.16312706905282,6.979457062797267E-6,0.0019717026655942647
277,192.12365162978517,6.969800120927984E-6,0.001978672465715193
278,192.08279606301082,7.085203025312166E-6,0.001985757668740505
279,192.04248435619232,6.932869535051046E-6,0.001992690538275556
280,192.0033971400069,6.921432500415517E-6,0.001999611970775972
281,191.96346871273036,6.979000667008129E-6,0.00200659097144298
282,191.92186832960235,7.064349033679929E-6,0.0020136553204766596
283,191.87855305068135,7.0566531402712915E-6,0.0020207119736169307
284,191.83611435718734,7.099173340262788E-6,0.0020278111469571934
285,191.7946555640973,7.11858900446677E-6,0.00203492973596166
286,191.7533954525816,7.1745229299190555E-6,0.002042104258891579
287,191.71146877862546,7.179460398610244E-6,0.0020492837192901893
288,191.66799136765724,7.148390873340786E-6,0.00205643211016353
289,191.62455310653465,7.267929152948152E-6,0.0020637000393164784
290,191.5806919449172,7.383019274085646E-6,0.002071083058590564
291,191.5353845562922,7.482587757857116E-6,0.002078565646348421
292,191.4910009859975,7.410270767547705E-6,0.0020859759171159686
293,191.44659453281977,7.378894810419633E-6,0.002093354811926388
294,191.4018542132185,7.301274880800162E-6,0.0021006560868071884
295,191.35560749112577,7.420402496097609E-6,0.0021080764893032862
296,191.30978960613498,7.482083073468949E-6,0.002115558572376755
297,191.26202630106243,7.570618728000833E-6,0.002123129191104756
298,191.21462316108543,7.63571626756209E-6,0.0021307649073723177
299,191.16771000050284,7.675663893464778E-6,0.0021384405712657826
300,191.12135729409556,7.564554061685185E-6,0.002146005125327468
301,191.07362914019419,7.50802798655681E-6,0.002153513153314025
302,191.02504073862426,7.474877123442774E-6,0.0021609880304374676
303,190.97582353744215,7.65542542934117E-6,0.0021686434558668088
304,190.9259105161871,7.761961168684002E-6,0.0021764054170354927
305,190.87452188351176,7.920477707888067E-6,0.002184325894743381
306,190.82236326831313,7.950116199944844E-6,0.0021922760109433256
307,190.77064941649155,7.862837052190885E-6,0.0022001388479955166
