#t,ESS,tempDiff,temp
0,100.00000000000006,0.0,0.0
1,100.00000000000007,1.0000000000000002E-12,1.0000000000000002E-12
2,100.0,7.000000000000002E-12,8.000000000000001E-12
3,100.0000000000001,1.8999999999999993E-11,2.6999999999999994E-11
4,100.00000000000003,3.7000000000000014E-11,6.400000000000001E-11
5,99.9999999999999,6.1E-11,1.25E-10
6,99.99999999999967,9.099999999999994E-11,2.1599999999999995E-10
7,99.99999999999918,1.2700000000000005E-10,3.43E-10
8,99.99999999999838,1.690000000000001E-10,5.120000000000001E-10
9,99.99999999999656,2.1699999999999987E-10,7.29E-10
10,99.99999999999378,2.710000000000001E-10,1.0E-9
11,99.99999999998892,3.310000000000002E-10,1.3310000000000003E-9
12,99.99999999998107,3.9699999999999935E-10,1.7279999999999996E-9
13,99.99999999996871,4.690000000000001E-10,2.1969999999999998E-9
14,99.99999999995121,5.470000000000003E-10,2.744E-9
15,99.99999999992659,6.31E-10,3.375E-9
16,99.99999999989177,7.210000000000007E-10,4.096000000000001E-9
17,99.9999999998442,8.169999999999983E-10,4.912999999999999E-9
18,99.99999999978294,9.190000000000007E-10,5.832E-9
19,99.99999999970355,1.0269999999999999E-9,6.8589999999999996E-9
20,99.99999999960204,1.141000000000001E-9,8.0E-9
21,99.9999999994689,1.2609999999999972E-9,9.260999999999998E-9
22,99.99999999930928,1.3870000000000044E-9,1.0648000000000002E-8
23,99.99999999911877,1.518999999999997E-9,1.2166999999999999E-8
24,99.99999999887318,1.656999999999998E-9,1.3823999999999997E-8
25,99.99999999858899,1.8010000000000057E-9,1.5625000000000003E-8
26,99.99999999824871,1.9509999999999954E-9,1.7575999999999998E-8
27,99.99999999781642,2.1070000000000036E-9,1.9683E-8
28,99.99999999726593,2.2689999999999987E-9,2.1952E-8
29,99.99999999661489,2.436999999999994E-9,2.4388999999999994E-8
30,99.99999999584908,2.611000000000006E-9,2.7E-8
31,99.99999999493718,2.790999999999995E-9,2.9790999999999995E-8
32,99.99999999389806,2.9770000000000107E-9,3.2768000000000006E-8
33,99.99999999270759,3.1689999999999935E-9,3.5937E-8
34,99.99999999138305,3.366999999999993E-9,3.930399999999999E-8
35,99.99999998984633,3.5710000000000126E-9,4.2875000000000005E-8
36,99.99999998805202,3.780999999999993E-9,4.6656E-8
37,99.99999998597103,3.997000000000006E-9,5.0653000000000004E-8
38,99.99999998353358,4.218999999999993E-9,5.4871999999999997E-8
39,99.99999998074523,4.4469999999999934E-9,5.931899999999999E-8
40,99.99999997755752,4.681000000000014E-9,6.4E-8
41,99.99999997407724,4.921000000000008E-9,6.892100000000001E-8
42,99.99999997006415,5.1669999999999694E-9,7.408799999999998E-8
43,99.99999996562097,5.419000000000017E-9,7.9507E-8
44,99.9999999606423,5.677000000000018E-9,8.518400000000002E-8
45,99.99999995511011,5.94099999999996E-9,9.112499999999998E-8
46,99.99999994881296,6.211000000000015E-9,9.733599999999999E-8
47,99.99999994169167,6.487000000000024E-9,1.0382300000000002E-7
48,99.9999999342128,6.7689999999999596E-9,1.1059199999999998E-7
49,99.9999999259697,7.057000000000008E-9,1.1764899999999998E-7
50,99.99999991733462,7.351000000000037E-9,1.2500000000000002E-7
51,99.99999990748056,7.65100000000002E-9,1.3265100000000004E-7
52,99.99999989670428,7.956999999999943E-9,1.4060799999999998E-7
53,99.99999988496772,8.269000000000006E-9,1.48877E-7
54,99.99999987215442,8.587000000000023E-9,1.57464E-7
55,99.99999985833972,8.910999999999966E-9,1.6637499999999998E-7
56,99.9999998426598,9.241000000000023E-9,1.75616E-7
57,99.99999982622496,9.577000000000007E-9,1.85193E-7
58,99.99999980840704,9.918999999999945E-9,1.9511199999999995E-7
59,99.99999978820178,1.0267000000000022E-8,2.0537899999999998E-7
60,99.99999976576234,1.0621000000000026E-8,2.16E-7
61,99.99999974239861,1.0981000000000037E-8,2.2698100000000004E-7
62,99.99999971695598,1.1346999999999923E-8,2.3832799999999996E-7
63,99.99999969041569,1.1719000000000054E-8,2.50047E-7
64,99.99999966134199,1.2097000000000032E-8,2.6214400000000005E-7
65,99.99999963009053,1.2480999999999938E-8,2.74625E-7
66,99.9999995962178,1.287100000000001E-8,2.87496E-7
67,99.99999955832453,1.3267000000000035E-8,3.0076300000000003E-7
68,99.99999951943317,1.3668999999999909E-8,3.1443199999999994E-7
69,99.99999947908242,1.4077000000000054E-8,3.28509E-7
70,99.99999943540067,1.4491000000000047E-8,3.4300000000000004E-7
71,99.99999938896663,1.4911000000000047E-8,3.579110000000001E-7
72,99.99999934041921,1.5336999999999894E-8,3.73248E-7
73,99.9999992893839,1.5769000000000014E-8,3.89017E-7
74,99.9999992329481,1.6207000000000034E-8,4.0522400000000003E-7
75,99.99999917168991,1.6650999999999902E-8,4.2187499999999993E-7
76,99.99999910706569,1.7101000000000042E-8,4.3897599999999997E-7
77,99.99999903671856,1.7557000000000082E-8,4.5653300000000006E-7
78,99.999998964413,1.8018999999999865E-8,4.745519999999999E-7
79,99.99999888338438,1.8487000000000184E-8,4.930390000000001E-7
80,99.99999880142504,1.8960999999999927E-8,5.12E-7
81,99.9999987162466,1.9440999999999836E-8,5.314409999999999E-7
82,99.9999986244579,1.992700000000023E-8,5.513680000000001E-7
83,99.99999852878337,2.041899999999994E-8,5.71787E-7
84,99.99999842749406,2.0916999999999816E-8,5.927039999999999E-7
85,99.99999831966966,2.142100000000028E-8,6.141250000000001E-7
86,99.9999982016844,2.1930999999999854E-8,6.36056E-7
87,99.99999807562239,2.244699999999991E-8,6.585029999999999E-7
88,99.99999794209845,2.2969000000000237E-8,6.814720000000001E-7
89,99.99999780158207,2.3496999999999883E-8,7.04969E-7
90,99.99999765146823,2.40309999999998E-8,7.289999999999998E-7
91,99.99999749485556,2.4571000000000307E-8,7.535710000000001E-7
92,99.99999733157364,2.5116999999999814E-8,7.786879999999999E-7
93,99.99999715100456,2.566899999999991E-8,8.043569999999998E-7
94,99.99999695578394,2.622700000000028E-8,8.305840000000001E-7
95,99.99999675133327,2.679099999999986E-8,8.57375E-7
96,99.99999652734353,2.7360999999999817E-8,8.847359999999998E-7
97,99.99999630256183,2.793700000000026E-8,9.126730000000001E-7
98,99.99999606364422,2.8518999999999807E-8,9.411919999999999E-7
99,99.99999581235288,2.9107000000000368E-8,9.702990000000002E-7
100,99.99999555228857,2.970099999999993E-8,1.0000000000000002E-6
101,99.99999527715138,3.030099999999976E-8,1.030301E-6
102,99.99999498401746,3.09070000000004E-8,1.0612080000000003E-6
103,99.99999468038693,3.1518999999999715E-8,1.092727E-6
104,99.99999436860493,3.213699999999983E-8,1.1248639999999999E-6
105,99.99999402928343,3.276100000000033E-8,1.1576250000000002E-6
106,99.99999368127973,3.339099999999972E-8,1.191016E-6
107,99.99999332514497,3.402699999999991E-8,1.2250429999999998E-6
108,99.99999294638222,3.466900000000027E-8,1.259712E-6
109,99.99999255039013,3.5316999999999945E-8,1.295029E-6
110,99.99999212723401,3.5970999999999787E-8,1.3309999999999998E-6
111,99.99999168841845,3.663100000000043E-8,1.3676310000000003E-6
112,99.99999124880821,3.7296999999999755E-8,1.404928E-6
113,99.99999080358938,3.796899999999967E-8,1.4428969999999997E-6
114,99.99999035215863,3.8647000000000386E-8,1.481544E-6
115,99.99998987167487,3.9330999999999785E-8,1.5208749999999999E-6
116,99.99998938495656,4.002099999999977E-8,1.5608959999999996E-6
117,99.99998888553323,4.071700000000056E-8,1.6016130000000002E-6
118,99.9999883475393,4.141899999999961E-8,1.6430319999999998E-6
119,99.99998779466029,4.212700000000052E-8,1.6851590000000003E-6
120,99.99998723280196,4.284099999999969E-8,1.728E-6
121,99.99998663223273,4.356099999999987E-8,1.7715609999999999E-6
122,99.99998598126645,4.428700000000043E-8,1.8158480000000003E-6
123,99.99998528078228,4.501899999999967E-8,1.860867E-6
124,99.99998455583798,4.575699999999971E-8,1.9066239999999997E-6
125,99.9999837559211,4.650100000000077E-8,1.9531250000000005E-6
126,99.99998288986063,4.725099999999966E-8,2.000376E-6
127,99.99998198070206,4.8006999999999776E-8,2.048383E-6
128,99.99998102368085,4.876900000000048E-8,2.0971520000000004E-6
129,99.9999800248257,4.953699999999966E-8,2.146689E-6
130,99.99997895077495,5.031099999999985E-8,2.197E-6
131,99.99997781057799,5.10910000000002E-8,2.248091E-6
132,99.99997657335292,5.1876999999999876E-8,2.299968E-6
133,99.99997526214342,5.2668999999999715E-8,2.3526369999999997E-6
134,99.99997390620149,5.346700000000057E-8,2.4061040000000002E-6
135,99.99997253857337,5.427099999999947E-8,2.4603749999999997E-6
136,99.99997116721394,5.5080999999999803E-8,2.5154559999999995E-6
137,99.9999697489404,5.589700000000073E-8,2.5713530000000002E-6
138,99.99996827411873,5.67189999999997E-8,2.628072E-6
139,99.99996672647461,5.754699999999969E-8,2.6856189999999996E-6
140,99.99996512346469,5.8381000000000687E-8,2.7440000000000003E-6
141,99.9999634860036,5.922099999999931E-8,2.8032209999999996E-6
142,99.99996172594811,6.006700000000106E-8,2.8632880000000007E-6
143,99.99995987288143,6.09189999999996E-8,2.9242070000000003E-6
144,99.99995787833872,6.177699999999956E-8,2.985984E-6
145,99.99995590374729,6.264100000000054E-8,3.0486250000000004E-6
146,99.99995387571546,6.351099999999957E-8,3.112136E-6
147,99.99995169685862,6.438699999999961E-8,3.1765229999999996E-6
148,99.99994945495749,6.526900000000066E-8,3.2417920000000002E-6
149,99.99994712715373,6.615699999999976E-8,3.307949E-6
150,99.99994469315948,6.705099999999945E-8,3.3749999999999995E-6
151,99.99994227035828,6.7951000000001E-8,3.4429510000000005E-6
152,99.99993978673373,6.885699999999933E-8,3.5118079999999998E-6
153,99.99993719666921,6.976899999999994E-8,3.5815769999999997E-6
154,99.99993452096525,7.068700000000072E-8,3.6522640000000004E-6
155,99.99993171506088,7.161099999999954E-8,3.723875E-6
156,99.99992881131608,7.254099999999938E-8,3.7964159999999994E-6
157,99.9999257393784,7.34769999999998E-8,3.869892999999999E-6
158,99.9999224616439,7.441900000000167E-8,3.944312000000001E-6
159,99.99991910815349,7.536699999999988E-8,4.019679000000001E-6
160,99.9999156400993,7.632099999999954E-8,4.096E-6
161,99.99991219890532,7.728099999999978E-8,4.173281E-6
162,99.99990851265599,7.824699999999891E-8,4.251527999999999E-6
163,99.99990466090009,7.921899999999949E-8,4.3307469999999984E-6
164,99.99990071549165,8.019700000000234E-8,4.410944000000001E-6
165,99.99989670276808,8.118099999999986E-8,4.492125000000001E-6
166,99.99989263180827,8.217099999999966E-8,4.574296E-6
167,99.99988833562459,8.31669999999992E-8,4.6574629999999995E-6
168,99.99988389115008,8.416899999999933E-8,4.741631999999999E-6
169,99.9998791268985,8.517700000000005E-8,4.826808999999999E-6
170,99.99987416676929,8.61910000000022E-8,4.913000000000001E-6
171,99.99986904017024,8.721099999999987E-8,5.000211000000001E-6
172,99.99986392017159,8.823699999999897E-8,5.088448E-6
173,99.99985855727726,8.92689999999995E-8,5.177716999999999E-6
174,99.99985312329821,9.030699999999978E-8,5.268023999999999E-6
175,99.9998475390679,9.135100000000234E-8,5.3593750000000015E-6
176,99.99984193351995,9.240099999999956E-8,5.451776000000001E-6
177,99.99983624938791,9.345699999999906E-8,5.545233E-6
178,99.99983028827074,9.4519E-8,5.639752E-6
179,99.99982426644053,9.558699999999899E-8,5.735338999999999E-6
180,99.99981805779254,9.666099999999941E-8,5.8319999999999985E-6
181,99.9998116483986,9.774100000000297E-8,5.9297410000000015E-6
182,99.99980519297591,9.882699999999949E-8,6.028568000000001E-6
183,99.99979842890932,9.991899999999914E-8,6.128487E-6
184,99.99979156686557,1.0101699999999938E-7,6.2295039999999995E-6
185,99.9997845566571,1.0212099999999936E-7,6.331624999999999E-6
186,99.99977767119587,1.0323099999999993E-7,6.434855999999999E-6
187,99.99977056051549,1.0434700000000278E-7,6.5392030000000016E-6
188,99.999762990687,1.0546899999999945E-7,6.644672000000001E-6
189,99.99975548375136,1.0659699999999924E-7,6.751269E-6
190,99.99974757075627,1.0773099999999963E-7,6.859E-6
191,99.99973920163818,1.0887099999999891E-7,6.967870999999999E-6
192,99.9997304891927,1.1001699999999963E-7,7.0778879999999984E-6
193,99.99972134020861,1.1116900000000263E-7,7.189057000000001E-6
194,99.99971174068739,1.1232699999999944E-7,7.3013840000000005E-6
195,99.99970184574529,1.1349099999999938E-7,7.414875E-6
196,99.99969180742121,1.1466099999999907E-7,7.529535999999999E-6
197,99.99968148184442,1.1583700000000019E-7,7.645372999999999E-6
198,99.99967066628462,1.1701900000000275E-7,7.762392000000002E-6
199,99.99965933465779,1.1820699999999912E-7,7.880599000000001E-6
200,99.99964681239581,1.1940100000000032E-7,8.000000000000001E-6
201,99.99963374754495,1.2060099999999786E-7,8.120601E-6
202,99.9996205724193,1.2180700000000024E-7,8.242408E-6
203,99.99960731016563,1.2301899999999897E-7,8.365426999999998E-6
204,99.99959397230347,1.242370000000042E-7,8.489664000000003E-6
205,99.9995803604032,1.2546099999999903E-7,8.615125000000002E-6
206,99.99956604719114,1.2669099999999868E-7,8.741816E-6
207,99.99955184614466,1.2792699999999977E-7,8.869743E-6
208,99.99953734269161,1.291689999999989E-7,8.998911999999999E-6
209,99.99952284160749,1.3041699999999947E-7,9.129328999999998E-6
210,99.99950806702786,1.3167100000000316E-7,9.261000000000002E-6
211,99.99949267750927,1.3293099999999983E-7,9.393931000000001E-6
212,99.99947727185254,1.3419699999999793E-7,9.528128E-6
213,99.99946129189034,1.3546899999999916E-7,9.663596999999999E-6
214,99.99944438176965,1.3674700000000013E-7,9.800343999999999E-6
215,99.99942704124918,1.3803099999999915E-7,9.938374999999998E-6
216,99.99940852457011,1.39321000000003E-7,1.0077696E-5
217,99.99938951304716,1.406169999999998E-7,1.0218313E-5
218,99.99936991966273,1.4191899999999975E-7,1.0360232E-5
219,99.99934970893761,1.4322699999999943E-7,1.0503459E-5
220,99.99932937205892,1.4454099999999886E-7,1.0647999999999999E-5
221,99.99930883527037,1.458610000000031E-7,1.0793861000000002E-5
222,99.99928754105001,1.4718700000000032E-7,1.0941048000000002E-5
223,99.99926589646745,1.4851899999999898E-7,1.1089567000000001E-5
224,99.99924499073359,1.4985699999999906E-7,1.1239424E-5
225,99.99922420864209,1.512009999999989E-7,1.1390624999999999E-5
226,99.99920251106985,1.5255099999999847E-7,1.1543175999999998E-5
227,99.99917976899492,1.5390700000000456E-7,1.1697083000000002E-5
228,99.99915634873035,1.5526899999999853E-7,1.1852352E-5
229,99.99913286079897,1.5663699999999902E-7,1.2008989E-5
230,99.99910883402006,1.5801099999999926E-7,1.2166999999999999E-5
231,99.99908456391304,1.5939099999999923E-7,1.2326390999999998E-5
232,99.99905976135067,1.6077699999999895E-7,1.2487167999999997E-5
233,99.99903403111023,1.621690000000052E-7,1.2649337000000002E-5
234,99.99900640258944,1.635669999999993E-7,1.2812904000000002E-5
235,99.99897730232182,1.6497099999999825E-7,1.2977875E-5
236,99.99894795223288,1.6638099999999864E-7,1.3144255999999998E-5
237,99.99891661358474,1.6779700000000045E-7,1.3312052999999999E-5
238,99.99888551269368,1.692190000000037E-7,1.3481272000000003E-5
239,99.99885325549685,1.7064699999999993E-7,1.3651919000000003E-5
240,99.99881987412266,1.7208099999999758E-7,1.3824E-5
241,99.99878628833021,1.7352100000000006E-7,1.3997521E-5
242,99.998752198809,1.749669999999989E-7,1.4172487999999999E-5
243,99.99871699353744,1.7641899999999917E-7,1.4348906999999998E-5
244,99.99868074077195,1.7787700000000426E-7,1.4526784000000003E-5
245,99.9986438889839,1.7934099999999893E-7,1.4706125000000001E-5
246,99.99860618824111,1.8081099999999843E-7,1.4886936E-5
247,99.99856782821904,1.8228699999999936E-7,1.5069223E-5
248,99.99852900876417,1.8376899999999834E-7,1.5252991999999998E-5
249,99.99849019244682,1.8525700000000045E-7,1.5438248999999998E-5
250,99.99845044563205,1.867510000000057E-7,1.5625000000000004E-5
251,99.99841220409459,1.8825099999999882E-7,1.5813251000000003E-5
252,99.99837316801519,1.8975699999999846E-7,1.6003008E-5
253,99.99833551795248,1.9126899999999785E-7,1.6194277E-5
254,99.99829900678351,1.9278700000000036E-7,1.6387064E-5
255,99.99826215895658,1.9431099999999923E-7,1.6581375E-5
256,99.99822493070093,1.9584100000000462E-7,1.6777216000000003E-5
257,99.99818592658703,1.9737699999999958E-7,1.6974593000000003E-5
258,99.99814551902912,1.9891899999999768E-7,1.7173512E-5
259,99.99810440691795,2.004669999999989E-7,1.7373979E-5
260,99.99806391839941,2.0202099999999987E-7,1.7576E-5
261,99.99802243375615,2.0358100000000397E-7,1.7779581000000003E-5
262,99.99797985611634,2.0514699999999765E-7,1.7984728E-5
263,99.9979364634374,2.0671900000000123E-7,1.8191447000000002E-5
264,99.99789468867094,2.0829699999999778E-7,1.8399744E-5
265,99.99785415645457,2.0988099999999746E-7,1.8609624999999997E-5
266,99.99781235244443,2.1147100000000027E-7,1.8821095999999997E-5
267,99.99777031218373,2.130670000000062E-7,1.9034163000000004E-5
268,99.99772742441367,2.1466899999999833E-7,1.9248832000000002E-5
269,99.99768527541721,2.1627699999999698E-7,1.9465109E-5
270,99.99764253808156,2.1789099999999876E-7,1.9682999999999998E-5
271,99.997600872086,2.1951100000000028E-7,1.9902510999999998E-5
272,99.99755698620595,2.2113699999999815E-7,2.0123647999999996E-5
273,99.99751259817835,2.2276900000000593E-7,2.0346417000000002E-5
274,99.99746930236894,2.244069999999999E-7,2.0570824000000002E-5
275,99.99742527668609,2.26050999999997E-7,2.0796875E-5
276,99.9973804849952,2.2770100000000062E-7,2.1024576E-5
277,99.99733558652792,2.293569999999972E-7,2.1253932999999997E-5
278,99.99728667051102,2.310190000000003E-7,2.1484951999999997E-5
279,99.99723572682544,2.3268700000000654E-7,2.1717639000000004E-5
280,99.99718478822265,2.3436099999999896E-7,2.1952000000000003E-5
281,99.99713066209708,2.360409999999979E-7,2.2188041E-5
282,99.99707676613792,2.3772699999999658E-7,2.2425767999999997E-5
283,99.99702123787941,2.394189999999984E-7,2.2665186999999995E-5
284,99.9969655781211,2.411170000000101E-7,2.2906304000000006E-5
285,99.99690774783052,2.4282099999999786E-7,2.3149125000000003E-5
286,99.99684541172807,2.445309999999989E-7,2.3393656000000002E-5
287,99.99678203809061,2.462469999999963E-7,2.3639903E-5
288,99.9967178489689,2.479690000000002E-7,2.3887872E-5
289,99.99665248503217,2.496969999999971E-7,2.4137568999999996E-5
290,99.99658824350165,2.5143100000000725E-7,2.4389000000000003E-5
291,99.99652248221695,2.531710000000002E-7,2.4642171000000003E-5
292,99.99645334485729,2.549169999999963E-7,2.4897088E-5
293,99.99638151717899,2.5666899999999895E-7,2.5153757E-5
294,99.99631406494751,2.584269999999979E-7,2.5412183999999997E-5
295,99.99624483818987,2.6019100000000003E-7,2.5672374999999997E-5
296,99.99617491632111,2.6196100000000527E-7,2.5934336000000002E-5
297,99.99610357966007,2.637370000000001E-7,2.6198073000000002E-5
298,99.99602681065454,2.65518999999998E-7,2.6463592E-5
299,99.99595129821193,2.673069999999991E-7,2.6730899E-5
300,99.99587279867215,2.6910099999999653E-7,2.6999999999999996E-5
301,99.99579101432204,2.709010000000005E-7,2.7270900999999996E-5
302,99.99571390943035,2.7270700000000755E-7,2.7543608000000004E-5
303,99.9956346992024,2.7451899999999743E-7,2.7818127E-5
304,99.9955553676204,2.763369999999972E-7,2.8094463999999998E-5
305,99.99547344989894,2.7816100000000013E-7,2.8372625E-5
306,99.99538914057744,2.799909999999994E-7,2.8652615999999998E-5
307,99.99530681561542,2.818270000000052E-7,2.8934443000000003E-5
308,99.99521974258325,2.8366900000000055E-7,2.9218112000000004E-5
309,99.99513342961984,2.8551699999999905E-7,2.9503629000000003E-5
310,99.99504404903398,2.873709999999973E-7,2.9791E-5
311,99.99494920694588,2.8923099999999865E-7,3.0080231E-5
312,99.9948527162764,2.910969999999964E-7,3.0371327999999995E-5
313,99.9947523510533,2.929690000000074E-7,3.0664297E-5
314,99.994650960677,2.9484699999999105E-7,3.095914399999999E-5
315,99.99454899090549,2.9673100000000494E-7,3.1255875E-5
316,99.99444440918782,2.986210000000084E-7,3.155449600000001E-5
317,99.99434071745817,3.005169999999879E-7,3.1855012999999995E-5
318,99.99423693519704,3.0241900000001117E-7,3.2157432000000006E-5
319,99.99413221268713,3.0432699999999015E-7,3.2461758999999996E-5
320,99.99402867489898,3.0624100000000614E-7,3.2768E-5
321,99.99391978852977,3.081609999999846E-7,3.307616099999999E-5
322,99.99380967438621,3.100870000000136E-7,3.3386248E-5
323,99.99369991951335,3.120190000000051E-7,3.3698267000000005E-5
324,99.99359197126095,3.139569999999862E-7,3.401222399999999E-5
325,99.99348289821627,3.1590100000001106E-7,3.4328125E-5
