#t,ESS,tempDiff,temp
0,200.00000000000065,0.0,0.0
1,199.99982879721694,4.506334913454469E-6,4.506334913454469E-6
2,199.999313754924,4.5108265943880925E-6,9.017161507842562E-6
3,199.99848381759776,4.451037784043368E-6,1.3468199291885929E-5
4,199.997353663973,4.439764517665064E-6,1.790796380955099E-5
5,199.9959087676797,4.418187610712455E-6,2.2326151420263446E-5
6,199.99411350863627,4.486515364346872E-6,2.6812666784610317E-5
7,199.99200335162905,4.498849253864047E-6,3.131151603847436E-5
8,199.989595708927,4.523207665887032E-6,3.5834723704361395E-5
9,199.9869012997731,4.512366299293081E-6,4.034709000365448E-5
10,199.9839332704303,4.4806855851766985E-6,4.482777558883118E-5
11,199.98067938620082,4.499031399124812E-6,4.932680698795599E-5
12,199.9770807079941,4.552757294608539E-6,5.3879564282564526E-5
13,199.97324579307607,4.495208964405241E-6,5.837477324696977E-5
14,199.96908546625016,4.473279974304212E-6,6.284805322127398E-5
15,199.96461552181628,4.48458503594952E-6,6.733263825722349E-5
16,199.9597618848023,4.523550498330672E-6,7.185618875555417E-5
17,199.9547125156794,4.509642088495518E-6,7.636583084404968E-5
18,199.94940219967273,4.517572339424341E-6,8.088340318347402E-5
19,199.9437637545906,4.536821474260862E-6,8.542022465773488E-5
20,199.93789191968148,4.470514231623799E-6,8.989073888935868E-5
21,199.93167407540457,4.481660714766974E-6,9.437239960412565E-5
22,199.92510854756313,4.483518057684909E-6,9.885591766181055E-5
23,199.9182683542874,4.441665783179547E-6,1.032975834449901E-4
24,199.91102211464195,4.526821541713472E-6,1.0782440498670357E-4
25,199.90348391559027,4.547012860633427E-6,1.12371417847337E-4
26,199.8957769636686,4.508037925574869E-6,1.1687945577291186E-4
27,199.88789539519794,4.549999591708175E-6,1.2142945536462004E-4
28,199.87989181451343,4.478860456249864E-6,1.259083158208699E-4
29,199.87157122556218,4.468562990903691E-6,1.303768788117736E-4
30,199.86293454292783,4.487278304849524E-6,1.3486415711662313E-4
31,199.85405567396194,4.4661780632313275E-6,1.3933033517985445E-4
32,199.84470442465837,4.5204231270604406E-6,1.438507583069149E-4
33,199.83506894627394,4.495845006345148E-6,1.4834660331326005E-4
34,199.82530243401038,4.446849208929666E-6,1.5279345252218972E-4
35,199.81531869567812,4.399961664471377E-6,1.571934141866611E-4
36,199.80517890316423,4.372764348216273E-6,1.6156617853487737E-4
37,199.79475955814465,4.370068120715351E-6,1.6593624665559272E-4
38,199.78400334432834,4.356243512655597E-6,1.7029249016824833E-4
39,199.77300591331803,4.296375556605822E-6,1.7458886572485415E-4
40,199.76172117227108,4.265324729572754E-6,1.788541904544269E-4
41,199.7499877576738,4.3441412025660075E-6,1.8319833165699292E-4
42,199.73772699597612,4.376430918888226E-6,1.8757476257588113E-4
43,199.72492673955347,4.409352600879253E-6,1.9198411517676038E-4
44,199.71190029382663,4.428359999836447E-6,1.9641247517659683E-4
45,199.69859275704295,4.437953668433564E-6,2.008504288450304E-4
46,199.68500308648802,4.42280707309745E-6,2.0527323591812785E-4
47,199.67115749658365,4.4518145345089456E-6,2.097250504526368E-4
48,199.6571609211267,4.394983901579789E-6,2.141200343542166E-4
49,199.64284389001588,4.411688832509117E-6,2.185317231867257E-4
50,199.62789642767189,4.476431864199961E-6,2.2300815505092565E-4
51,199.61289432286256,4.428025098097691E-6,2.2743618014902333E-4
52,199.5977114036187,4.372921068074761E-6,2.3180910121709807E-4
53,199.58216041769074,4.372455690027005E-6,2.361815569071251E-4
54,199.56620125157465,4.418634171850054E-6,2.4060019107897515E-4
55,199.54980429965704,4.453091342403326E-6,2.4505328242137845E-4
56,199.53290012120613,4.485667167000766E-6,2.495389495883792E-4
57,199.51558685610811,4.516254529478066E-6,2.5405520411785727E-4
58,199.49804755346946,4.536197477199774E-6,2.5859140159505703E-4
59,199.48038818085527,4.508614374719023E-6,2.6310001596977606E-4
60,199.46235190723706,4.495131172032037E-6,2.675951471418081E-4
61,199.4443504947717,4.451482764678152E-6,2.7204662990648626E-4
62,199.42607908544375,4.4279150054373524E-6,2.764745449119236E-4
63,199.40738254174062,4.484900079911631E-6,2.809594449918352E-4
64,199.38862768632015,4.433897204066253E-6,2.853933421959015E-4
65,199.36983255758966,4.360119262907749E-6,2.897534614588092E-4
66,199.35071102200405,4.376250410748797E-6,2.94129711869558E-4
67,199.3314522975258,4.393964166714303E-6,2.985236760362723E-4
68,199.3123559437236,4.312963354630356E-6,3.0283663939090265E-4
69,199.29271299331077,4.3378220651059385E-6,3.071744614560086E-4
70,199.27268473642147,4.2969743903854036E-6,3.1147143584639404E-4
71,199.2526411112215,4.2947203023076135E-6,3.1576615614870165E-4
72,199.23215829726874,4.304501053893469E-6,3.200706572025951E-4
73,199.21197765799974,4.28549046308447E-6,3.243561476656796E-4
74,199.191744056352,4.233841338561888E-6,3.2858998900424147E-4
75,199.17146090749745,4.208057558895882E-6,3.3279804656313733E-4
76,199.15072005998653,4.238333166736968E-6,3.370363797298743E-4
77,199.12970248549445,4.205184539048247E-6,3.4124156426892254E-4
78,199.10866197448038,4.189601900317452E-6,3.4543116616924E-4
79,199.08749212209486,4.2235899088081625E-6,3.496547560780481E-4
80,199.0658318705295,4.204961762494996E-6,3.538597178405431E-4
81,199.0440183787936,4.2340886323485245E-6,3.5809380647289164E-4
82,199.02191682868266,4.2546483294842404E-6,3.623484548023759E-4
83,198.9995142068715,4.271291421196181E-6,3.666197462235721E-4
84,198.97697198390054,4.31566565212778E-6,3.7093541187569986E-4
85,198.95442804202895,4.327746259382544E-6,3.752631581350824E-4
86,198.9318633818979,4.330412072665533E-6,3.7959357020774794E-4
87,198.9091765382389,4.309486192511173E-6,3.8390305640025914E-4
88,198.88623964816549,4.30311708856388E-6,3.88206173488823E-4
89,198.8628773674225,4.303541298916337E-6,3.9250971478773934E-4
90,198.8395627799105,4.286168049161454E-6,3.967958828369008E-4
91,198.81547381729962,4.350760336173251E-6,4.0114664317307406E-4
92,198.7908267262824,4.382277623671219E-6,4.0552892079674527E-4
93,198.76636301020176,4.3558606155121755E-6,4.0988478141225744E-4
94,198.74186750741694,4.371962421966385E-6,4.142567438342238E-4
95,198.71707388130397,4.401608044336408E-6,4.1865835187856023E-4
96,198.69223667925425,4.394616995200107E-6,4.2305296887376034E-4
97,198.6674893620209,4.2858403402673565E-6,4.273388092140277E-4
98,198.64195829223502,4.330349526020075E-6,4.316691587400478E-4
99,198.61616168423234,4.379204543020585E-6,4.3604836328306836E-4
100,198.59064269078948,4.356374258543472E-6,4.4040473754161186E-4
101,198.5648050064473,4.391327654744299E-6,4.4479606519635614E-4
102,198.5387771322075,4.401948873952271E-6,4.491980140703084E-4
103,198.5125907033978,4.426304188915229E-6,4.5362431825922363E-4
104,198.48641567547872,4.4417490867220665E-6,4.580660673459457E-4
105,198.45935849154512,4.411194180202909E-6,4.624772615261486E-4
106,198.43193262676033,4.439901564334722E-6,4.669171630904833E-4
107,198.40398544350185,4.4344709042658396E-6,4.713516339947491E-4
108,198.3762624346501,4.3985272840745895E-6,4.7575016127882373E-4
109,198.3484008396487,4.438648148114944E-6,4.8018880942693866E-4
110,198.31997738077123,4.53882832522569E-6,4.8472763775216435E-4
111,198.29163692718436,4.5276606995689585E-6,4.892552984517333E-4
112,198.26326777713203,4.5122404448945485E-6,4.937675388966279E-4
113,198.23491264915148,4.462430785065993E-6,4.98229969681694E-4
114,198.2060468812557,4.446441663170942E-6,5.026764113448649E-4
115,198.17700479146697,4.438059658509246E-6,5.071144710033741E-4
116,198.14710737776568,4.459380280601532E-6,5.115738512839757E-4
117,198.11665872679868,4.455528091592408E-6,5.160293793755681E-4
118,198.085497171568,4.453032668199562E-6,5.204824120437677E-4
119,198.05419424580523,4.450040693580166E-6,5.249324527373478E-4
120,198.02320679882897,4.4093710876483905E-6,5.293418238249962E-4
121,197.99169057190454,4.433749918560549E-6,5.337755737435568E-4
122,197.95999169695182,4.450043107240277E-6,5.38225616850797E-4
123,197.92745250788323,4.558061082626078E-6,5.427836779334231E-4
124,197.89382447886618,4.568060992221467E-6,5.473517389256446E-4
125,197.86029989044147,4.5313537344591076E-6,5.518830926601037E-4
126,197.82762250168727,4.49085075458488E-6,5.563739434146886E-4
127,197.79505680410787,4.471289703442426E-6,5.608452331181311E-4
128,197.7629395157195,4.410902322670476E-6,5.652561354408016E-4
129,197.73119695728732,4.363244559516524E-6,5.69619380000318E-4
130,197.69930859916224,4.362328696027553E-6,5.739817086963456E-4
131,197.66749483938244,4.384926263319112E-6,5.783666349596648E-4
132,197.63533726352114,4.359974588554803E-6,5.827266095482196E-4
133,197.60290120564807,4.315189001619879E-6,5.870417985498395E-4
134,197.56970879314994,4.243801508676172E-6,5.912856000585157E-4
135,197.53661430341865,4.223472315376724E-6,5.955090723738924E-4
136,197.50262994246748,4.294681743574191E-6,5.998037541174666E-4
137,197.46845096523282,4.287359623161897E-6,6.040911137406285E-4
138,197.43444314258485,4.258398917589942E-6,6.083495126582185E-4
139,197.3999890868477,4.277532162957296E-6,6.126270448211758E-4
140,197.36494613199176,4.3212474075270865E-6,6.169482922287029E-4
141,197.32977484096426,4.326488954451018E-6,6.21274781183154E-4
142,197.29442884934585,4.342626529663896E-6,6.256174077128179E-4
143,197.2582628618865,4.3624392410832586E-6,6.299798469539011E-4
144,197.22165275650084,4.3927930870646885E-6,6.343726400409658E-4
145,197.18538590594136,4.342613434307972E-6,6.387152534752737E-4
146,197.14916144522488,4.378122512469415E-6,6.430933759877432E-4
147,197.11279666303747,4.4013334257394506E-6,6.474947094134826E-4
148,197.0762247435558,4.429879270004134E-6,6.519245886834867E-4
149,197.0397555868799,4.3926849969148605E-6,6.563172736804016E-4
150,197.00333362354564,4.396846327067115E-6,6.607141200074687E-4
151,196.9671946443941,4.387015807831185E-6,6.651011358152998E-4
152,196.93116471073813,4.343895635315877E-6,6.694450314506157E-4
153,196.8960356590947,4.256862761957248E-6,6.73701894212573E-4
154,196.86064784287808,4.270481043774409E-6,6.779723752563474E-4
155,196.8243451237614,4.283366521676936E-6,6.822557417780243E-4
156,196.78800016016172,4.24690532069027E-6,6.865026470987145E-4
157,196.75115651449747,4.258315571583719E-6,6.907609626702983E-4
158,196.71414792715396,4.215220366586729E-6,6.949761830368851E-4
159,196.67687799662923,4.205970070121656E-6,6.991821531070067E-4
160,196.64010046162582,4.195386980219579E-6,7.033775400872263E-4
161,196.60407501838486,4.175438591203274E-6,7.075529786784296E-4
162,196.56763314249807,4.218785171206883E-6,7.117717638496365E-4
163,196.53105771588355,4.268686573936913E-6,7.160404504235734E-4
164,196.49439583303788,4.3028858234439036E-6,7.203433362470172E-4
165,196.45824015348367,4.2341038635118705E-6,7.245774401105291E-4
166,196.42279648564494,4.221400392567938E-6,7.28798840503097E-4
167,196.3876269066463,4.177453546655545E-6,7.329762940497526E-4
168,196.3520051327934,4.189000226036315E-6,7.37165294275789E-4
169,196.315956124782,4.1913314591745835E-6,7.413566257349636E-4
170,196.2798375213023,4.242066471782977E-6,7.455986922067466E-4
171,196.24454720775367,4.210523696536247E-6,7.498092159032828E-4
172,196.20957643738203,4.192889275480696E-6,7.540021051787635E-4
173,196.17511284217693,4.13266907459863E-6,7.581347742533622E-4
174,196.14092018470186,4.126096438567468E-6,7.622608706919296E-4
175,196.106819421464,4.137568573576402E-6,7.663984392655061E-4
176,196.07244073447913,4.166824129137849E-6,7.70565263394644E-4
177,196.03790254741776,4.175110896522128E-6,7.747403742911661E-4
178,196.00423970366552,4.175452201468112E-6,7.789158264926342E-4
179,195.97054550490694,4.1638684101155984E-6,7.830796949027498E-4
180,195.9367369860641,4.186311793402843E-6,7.872660066961526E-4
181,195.90342827583592,4.1897790606955775E-6,7.914557857568482E-4
182,195.86993470791808,4.211551959121007E-6,7.956673377159692E-4
183,195.8366902548583,4.2249090155858675E-6,7.998922467315551E-4
184,195.8031291014717,4.254004101394801E-6,8.041462508329498E-4
185,195.76962061762524,4.228272523234771E-6,8.083745233561846E-4
186,195.7363680382129,4.2157899796221174E-6,8.125903133358067E-4
187,195.70322804422207,4.2295657274056864E-6,8.168198790632124E-4
188,195.66978015712994,4.228492646351396E-6,8.210483717095638E-4
189,195.6355354599225,4.251052753238813E-6,8.252994244628026E-4
190,195.60055275870164,4.238625096479464E-6,8.295380495592821E-4
191,195.56637080696686,4.22380608091185E-6,8.33761855640194E-4
192,195.53295868481933,4.1415483119658036E-6,8.379034039521598E-4
193,195.49953735700197,4.153776397691582E-6,8.420571803498514E-4
194,195.465763353392,4.166619610163871E-6,8.462237999600152E-4
195,195.43080268985256,4.205200164716672E-6,8.504290001247319E-4
196,195.39613142083556,4.2334520710888585E-6,8.546624521958208E-4
197,195.36253114051794,4.19430462643164E-6,8.588567568222524E-4
198,195.32929246883606,4.168086400100816E-6,8.630248432223533E-4
199,195.29589366803347,4.146723016862274E-6,8.671715662392156E-4
200,195.2624815480983,4.124867979178758E-6,8.712964342183943E-4
201,195.22860126158943,4.118457772839002E-6,8.754148919912333E-4
202,195.19464061566788,4.152420488575526E-6,8.795673124798088E-4
203,195.16018797719443,4.173284398053339E-6,8.837405968778621E-4
204,195.12575517997206,4.168102239291434E-6,8.879086991171535E-4
205,195.0913284620867,4.172695057822729E-6,8.920813941749762E-4
206,195.05778939349247,4.1592119068155705E-6,8.962406060817917E-4
207,195.0238860474742,4.1939263948573104E-6,9.00434532476649E-4
208,194.9894619954171,4.2012365856948725E-6,9.046357690623439E-4
209,194.95503318939365,4.2555714688368065E-6,9.088913405311806E-4
210,194.92001618150127,4.290200644936689E-6,9.131815411761173E-4
211,194.88522793043916,4.234062887327573E-6,9.174156040634449E-4
212,194.84942295293294,4.30779280710658E-6,9.217233968705514E-4
213,194.81394848336174,4.283225428054795E-6,9.260066222986063E-4
214,194.7784269002228,4.25050779114301E-6,9.302571300897493E-4
215,194.74278902253835,4.2696897462222435E-6,9.345268198359715E-4
216,194.70622672756568,4.276303832692685E-6,9.388031236686643E-4
217,194.6696533486614,4.263042071658844E-6,9.430661657403232E-4
218,194.63306678841178,4.278255286174168E-6,9.473444210264973E-4
219,194.59816266926933,4.2664854789572664E-6,9.516109065054546E-4
220,194.5631621088797,4.252907751619587E-6,9.558638142570741E-4
221,194.5281739408953,4.264470207966633E-6,9.601282844650408E-4
222,194.49297344148158,4.297727745000356E-6,9.644260122100411E-4
223,194.45731223721793,4.307865472936221E-6,9.687338776829773E-4
224,194.42140356486627,4.291015204584289E-6,9.730248928875616E-4
225,194.38456697015604,4.312978383505799E-6,9.773378712710674E-4
226,194.34797900244908,4.263650518595767E-6,9.816015217896633E-4
227,194.31033252441014,4.283013559015532E-6,9.858845353486788E-4
228,194.27260331422374,4.283712156528409E-6,9.901682475052071E-4
229,194.23504144308723,4.269692474874254E-6,9.944379399800813E-4
230,194.19734463182994,4.286148488132652E-6,9.98724088468214E-4
231,194.15911071853486,4.258356894471753E-6,0.0010029824453626857
232,194.12142301121324,4.184028117594435E-6,0.00100716647348028
233,194.08352415100273,4.187304233827113E-6,0.001011353777714107
234,194.0446409930751,4.173173960625433E-6,0.0010155269516747326
235,194.00579759164262,4.185192201547994E-6,0.0010197121438762806
236,193.96579805773902,4.222128889386701E-6,0.0010239342727656673
237,193.92630259267676,4.167791949732665E-6,0.0010281020647153998
238,193.88764488582865,4.169858356431101E-6,0.001032271923071831
239,193.84916292799505,4.171322209700382E-6,0.0010364432452815314
240,193.810907905492,4.166967556897367E-6,0.0010406102128384287
241,193.77295891925385,4.1809383965802066E-6,0.0010447911512350089
242,193.73532926237175,4.2112877734611775E-6,0.00104900243900847
243,193.6971481859545,4.190962586505055E-6,0.0010531934015949752
244,193.657895152792,4.216181489367627E-6,0.0010574095830843428
245,193.61828286079424,4.203705009152573E-6,0.0010616132880934953
246,193.5777479163029,4.2192082523052055E-6,0.0010658324963458005
247,193.53645677021473,4.2313983197671935E-6,0.0010700638946655678
248,193.4945095256779,4.288564647427723E-6,0.0010743524593129954
249,193.45245316538248,4.3086844811250965E-6,0.0010786611437941206
250,193.40951008368745,4.34644046013832E-6,0.0010830075842542589
251,193.36620751260915,4.343023997022336E-6,0.0010873506082512813
252,193.3226936660201,4.339757880967438E-6,0.0010916903661322488
253,193.2796004816041,4.338874054788296E-6,0.0010960292401870372
254,193.23695001551508,4.317200027960143E-6,0.0011003464402149974
255,193.19401896255573,4.36920992023216E-6,0.0011047156501352295
256,193.1501723634612,4.405278211169551E-6,0.001109120928346399
257,193.10615337750917,4.410137492162973E-6,0.0011135310658385619
258,193.06275754565962,4.364406248229118E-6,0.001117895472086791
259,193.01948820705837,4.333107259550988E-6,0.001122228579346342
260,192.97689082947633,4.307000621105755E-6,0.0011265355799674477
261,192.93405370765328,4.307882249795385E-6,0.001130843462217243
262,192.8913452251288,4.299100524612238E-6,0.0011351425627418553
263,192.84802945208816,4.316450954848277E-6,0.0011394590136967035
264,192.80486792016129,4.309235701773684E-6,0.0011437682493984772
265,192.76212923573505,4.309427676385862E-6,0.0011480776770748631
266,192.71930034524814,4.272798001179036E-6,0.0011523504750760422
267,192.6764663782662,4.294966519943082E-6,0.0011566454415959852
268,192.63294441826534,4.287294209535785E-6,0.001160932735805521
269,192.58903535665488,4.274444725060878E-6,0.001165207180530582
270,192.54582981323108,4.243348301621167E-6,0.0011694505288322031
271,192.50300152920525,4.180267348076874E-6,0.00117363079618028
272,192.46072479911825,4.167387116482572E-6,0.0011777981832967626
273,192.41903279753788,4.186315220155966E-6,0.0011819844985169186
274,192.37672881257546,4.197806093279997E-6,0.0011861823046101986
275,192.33463410251048,4.207986608152275E-6,0.001190390291218351
276,192.29211391022642,4.216862716973608E-6,0.0011946071539353246
277,192.24961851273926,4.186045620122635E-6,0.0011987931995554473
278,192.20719990532686,4.174605630238175E-6,0.0012029678051856856
279,192.16532167581752,4.148201498304799E-6,0.0012071160066839904
280,192.12261178605465,4.1631628587033465E-6,0.0012112791695426937
281,192.07993337375257,4.1848135076649184E-6,0.0012154639830503585
282,192.03780737147395,4.154236548946758E-6,0.0012196182195993053
283,191.99554526300741,4.1218477126465025E-6,0.0012237400673119519
284,191.95330250171864,4.14312984772363E-6,0.0012278831971596754
285,191.91147618721706,4.114683884438509E-6,0.001231997881044114
286,191.8688739777749,4.155639540506928E-6,0.001236153520584621
287,191.8269568728572,4.121627456982862E-6,0.0012402751480416038
288,191.78398630787746,4.1205635103421335E-6,0.001244395711551946
289,191.7412511851994,4.102333738086476E-6,0.0012484980452900324
290,191.69958401146224,4.054130622010811E-6,0.0012525521759120433
291,191.6576152231138,4.0094074264881E-6,0.0012565615833385313
292,191.6156216872858,3.980024343210076E-6,0.0012605416076817415
293,191.57362678640644,3.997363683246831E-6,0.0012645389713649884
294,191.53119001619808,4.013433389775334E-6,0.0012685524047547638
295,191.48810016756693,4.001156308527128E-6,0.001272553561063291
296,191.44450103482836,3.998283274881451E-6,0.0012765518443381724
297,191.40126463797034,4.010066327303916E-6,0.0012805619106654763
298,191.35726918369596,3.986119559981461E-6,0.0012845480302254577
299,191.31411349128373,4.006052303147331E-6,0.001288554082528605
300,191.2709317738191,4.010724417779637E-6,0.0012925648069463847
301,191.22745849425058,4.030713715554649E-6,0.0012965955206619393
302,191.18385776011402,4.053861230857078E-6,0.0013006493818927963
303,191.13926666351563,4.0348827536154445E-6,0.0013046842646464117
304,191.09488922631093,4.016084671130961E-6,0.0013087003493175427
305,191.0491444446561,4.090395755080755E-6,0.0013127907450726235
306,191.00352156642134,4.049040027967601E-6,0.001316839785100591
307,190.95823194546637,4.06304226421227E-6,0.0013209028273648033
308,190.91368684549533,4.011333494548253E-6,0.0013249141608593516
