#t,ESS,tempDiff,temp
0,999.9999999999848,0.0,0.0
1,999.9895071629583,2.7827799785488264E-5,2.7827799785488264E-5
2,999.9583756834877,2.79391795163604E-5,5.576697930184866E-5
3,999.9063587655392,2.8081763700748746E-5,8.384874300259741E-5
4,999.8345928133771,2.7927182188862137E-5,1.1177592519145954E-4
5,999.7412549965645,2.829878194100186E-5,1.400747071324614E-4
6,999.6285577171134,2.79862323452631E-5,1.680609394777245E-4
7,999.4947732816327,2.81849029841349E-5,1.962458424618594E-4
8,999.3418644144604,2.823094047454564E-5,2.2447678293640504E-4
9,999.1671987078503,2.8489240986973555E-5,2.529660239233786E-4
10,998.9744575490538,2.8335877507979212E-5,2.813019014313578E-4
11,998.7599095388122,2.8535061202019117E-5,3.0983696263337695E-4
12,998.5258850060567,2.8675759422316457E-5,3.385127220556934E-4
13,998.2732621395329,2.8614761724068808E-5,3.671274837797622E-4
14,998.0082455260268,2.8244387759124413E-5,3.953718715388866E-4
15,997.7289091830356,2.7806142538592438E-5,4.2317801407747906E-4
16,997.4346835802074,2.766748821129026E-5,4.5084550228876934E-4
17,997.1266601988688,2.770081001096471E-5,4.785463122997341E-4
18,996.8040244553879,2.7606712127838384E-5,5.061530244275724E-4
19,996.4621237394205,2.7598662703204977E-5,5.337516871307775E-4
20,996.1050513267104,2.7434477908109393E-5,5.611861650388868E-4
21,995.7321665182552,2.7442665254876817E-5,5.886288302937637E-4
22,995.3478079778903,2.7255952911166623E-5,6.158847832049303E-4
23,994.9492480420402,2.7398274283519384E-5,6.432830574884497E-4
24,994.53760448091,2.7413119318938986E-5,6.706961768073886E-4
25,994.1084153702839,2.747828257407413E-5,6.981744593814627E-4
26,993.6661361950453,2.74824406142842E-5,7.25656899995747E-4
27,993.2150882774247,2.7768277922328403E-5,7.534251779180754E-4
28,992.7514116090896,2.7817742264223686E-5,7.812429201822991E-4
29,992.2715557252075,2.7721562706634514E-5,8.089644828889336E-4
30,991.7787955136204,2.7618258138376603E-5,8.365827410273103E-4
31,991.27349354179,2.76666990951927E-5,8.64249440122503E-4
32,990.7587183333044,2.744032427188012E-5,8.916897643943831E-4
33,990.2386016357209,2.7188474154966132E-5,9.188782385493491E-4
34,989.7088639234278,2.7046937568514075E-5,9.459251761178633E-4
35,989.1630898253808,2.712158001582358E-5,9.730467561336869E-4
36,988.5960006243686,2.737437711171307E-5,0.0010004211332454
37,988.0186083423794,2.717859637365894E-5,0.0010275997296190589
38,987.4373355746343,2.7033994122802565E-5,0.0010546337237418615
39,986.8483475902082,2.693292832573757E-5,0.001081566652067599
40,986.249021050578,2.698373020819449E-5,0.0011085503822757935
41,985.6361494533819,2.708167015394848E-5,0.0011356320524297419
42,985.0067977140413,2.702339942189359E-5,0.0011626554518516354
43,984.3649554925936,2.700026037858404E-5,0.0011896557122302194
44,983.7131543197826,2.7100582042240544E-5,0.00121675629427246
45,983.0564047798678,2.681515046979458E-5,0.0012435714447422545
46,982.3859444109848,2.693403368865578E-5,0.0012705054784309102
47,981.7098709995097,2.6815412809790142E-5,0.0012973208912407004
48,981.0217757296455,2.6823293593361557E-5,0.0013241441848340619
49,980.3199568893015,2.6886642317721638E-5,0.0013510308271517835
50,979.6103438204459,2.680516962074993E-5,0.0013778359967725334
51,978.9080671168193,2.6481755380767474E-5,0.001404317752153301
52,978.1775523788893,2.694424338108462E-5,0.0014312619955343857
53,977.4314691848034,2.6988535094519627E-5,0.0014582505306289053
54,976.6744400067205,2.6991809966438795E-5,0.0014852423405953441
55,975.9078388130287,2.7193827584177286E-5,0.0015124361681795213
56,975.1413078702408,2.705081235057678E-5,0.0015394869805300982
57,974.3631249710963,2.715848818117507E-5,0.0015666454687112733
58,973.580221469164,2.7190132971443822E-5,0.0015938356016827171
59,972.8030959192653,2.7066118006500525E-5,0.0016209017196892176
60,972.0146251291198,2.7081678466073278E-5,0.0016479833981552909
61,971.2062713362675,2.7053356475938445E-5,0.0016750367546312292
62,970.4070583223295,2.6899962052888947E-5,0.0017019367166841181
63,969.5923286199221,2.701957004120796E-5,0.001728956286725326
64,968.7643197058827,2.7155439876047377E-5,0.0017561117266013733
65,967.9154249651101,2.7342970150444517E-5,0.0017834546967518178
66,967.0657057172252,2.7374617944932155E-5,0.00181082931469675
67,966.2258023059961,2.732384538492244E-5,0.0018381531600816724
68,965.3717810818965,2.7432388131393308E-5,0.0018655855482130658
69,964.5129658575651,2.715409469171406E-5,0.0018927396429047798
70,963.6481542184401,2.705552599084441E-5,0.0019197951688956242
71,962.7872696020515,2.6823509726568087E-5,0.0019466186786221923
72,961.9271768409022,2.6822646551424316E-5,0.0019734413251736166
73,961.0653280192428,2.696513620343228E-5,0.0020004064613770487
74,960.2101764835415,2.6938976785552496E-5,0.002027345438162601
75,959.3423552344622,2.7127448949057817E-5,0.0020544728871116588
76,958.4663389654594,2.711318712408168E-5,0.0020815860742357402
77,957.5924522682021,2.7110449429604087E-5,0.0021086965236653443
78,956.705971988108,2.727251397573082E-5,0.0021359690376410753
79,955.8100440116273,2.7403960334844302E-5,0.0021633729979759196
80,954.9224456281861,2.738017176376903E-5,0.0021907531697396886
81,954.0347715142265,2.7492053496822434E-5,0.002218245223236511
82,953.134896472348,2.7449934782892613E-5,0.002245695158019404
83,952.2239469334554,2.7288888204698122E-5,0.002272984046224102
84,951.3140586390326,2.71668080643474E-5,0.0023001508542884494
85,950.4165543641973,2.7076597926422485E-5,0.0023272274522148717
86,949.5281859550207,2.685824041437863E-5,0.0023540856926292505
87,948.6164453296715,2.7099677445331083E-5,0.0023811853700745817
88,947.6753676120882,2.7330847423929874E-5,0.0024085162174985117
89,946.7229354602125,2.7316229600473685E-5,0.002435832447098985
90,945.7566593099073,2.7354810986354893E-5,0.00246318725808534
91,944.7703501173406,2.7568454882250063E-5,0.00249075571296759
92,943.7830642650335,2.7484889175625314E-5,0.002518240602143215
93,942.7818744037161,2.7304537052033322E-5,0.0025455451391952484
94,941.7843298952472,2.730771310755056E-5,0.002572852852302799
95,940.7929075654292,2.727001201306403E-5,0.002600122864315863
96,939.8083361627022,2.7311070251041383E-5,0.0026274339345669045
97,938.8222597838227,2.7285135218459497E-5,0.002654719069785364
98,937.8402006354867,2.7125788572851378E-5,0.0026818448583582153
99,936.8385413379815,2.7444241848341396E-5,0.0027092891002065567
100,935.8241012736529,2.7445564880907484E-5,0.002736734665087464
101,934.8118352857375,2.7459889484218518E-5,0.0027641945545716826
102,933.8126857943889,2.7188935373559774E-5,0.0027913834899452425
103,932.8061508011793,2.723480704576108E-5,0.0028186182969910036
104,931.7961955060333,2.710138041468299E-5,0.0028457196774056867
105,930.8007547741024,2.6982101946699695E-5,0.0028727017793523865
106,929.7957635675309,2.7057049084898247E-5,0.0028997588284372846
107,928.7848063896354,2.6888678064541927E-5,0.0029266475065018267
108,927.7801064737362,2.6857985009052185E-5,0.002953505491510879
109,926.8032135064851,2.665271164975185E-5,0.002980158203160631
110,925.8290344683323,2.67891200952269E-5,0.0030069473232558577
111,924.8687007558302,2.6948372264905513E-5,0.0030338956955207634
112,923.9241694539787,2.666255375846038E-5,0.0030605582492792237
113,922.9717346179324,2.664788442844019E-5,0.0030872061337076638
114,922.003857507145,2.6618587336837502E-5,0.0031138247210445013
115,921.0304530481403,2.6466806550239188E-5,0.0031402915275947404
116,920.0782927682596,2.6229741495376007E-5,0.0031665212690901163
117,919.1036988399969,2.6587244169597598E-5,0.003193108513259714
118,918.1093400475775,2.666199976816697E-5,0.003219770513027881
119,917.1403464937225,2.6274207500156176E-5,0.003246044720528037
120,916.1686878007505,2.6315786338549858E-5,0.0032723605068665867
121,915.2015667362527,2.6188180764487713E-5,0.0032985486876310746
122,914.2337800764308,2.616191930295177E-5,0.0033247106069340263
123,913.2489175543234,2.648731248176784E-5,0.003351197919415794
124,912.2425499432593,2.639047703634605E-5,0.00337758839645214
125,911.2219170466448,2.6646701217646535E-5,0.0034042350976697866
126,910.1975690743755,2.6447957592751065E-5,0.0034306830552625375
127,909.1742678135142,2.648802275797955E-5,0.003457171078020517
128,908.1628799595468,2.6300934115957303E-5,0.003483472012136474
129,907.1347920567966,2.6419851141197462E-5,0.003509891863277672
130,906.1032672795163,2.645859876619654E-5,0.003536350462043868
131,905.0736440645921,2.657405722546302E-5,0.0035629245192693314
132,904.0393844579219,2.6505224980316574E-5,0.003589429744249648
133,903.0036781107043,2.65203846726795E-5,0.0036159501289223274
134,901.9638600555268,2.653537480339841E-5,0.0036424855037257256
135,900.9004389167137,2.6578031649233637E-5,0.0036690635353749594
136,899.824398872049,2.6446189560333515E-5,0.003695509724935293
137,898.7747742900053,2.628472402713382E-5,0.0037217944489624268
138,897.7005247539857,2.6143203669494942E-5,0.003747937652631922
139,896.6260078803782,2.613935094309632E-5,0.003774077003575018
140,895.5254119855308,2.6402353168287447E-5,0.0038004793567433057
141,894.4306194093368,2.6221003711276222E-5,0.003826700360454582
142,893.3290409927087,2.6284210940785575E-5,0.003852984571395368
143,892.2169228362994,2.634587097063271E-5,0.0038793304423660004
144,891.0777703877486,2.6302897269600586E-5,0.003905633339635601
145,889.9526238793155,2.623221898675132E-5,0.003931865558622352
146,888.8091834491204,2.6201740634071984E-5,0.003958067299256424
147,887.6535532084299,2.630570670384443E-5,0.003984373005960269
148,886.4856999275331,2.643526466527435E-5,0.004010808270625543
149,885.313243679902,2.6349920786524544E-5,0.0040371581914120675
150,884.1111974270603,2.6537406048956994E-5,0.004063695597461024
151,882.890285989805,2.6721512604798283E-5,0.004090417110065823
152,881.6689338688889,2.6596345056771283E-5,0.004117013455122594
153,880.4539843160746,2.674894682591203E-5,0.004143762401948506
154,879.2276421987268,2.6786294622625705E-5,0.004170548696571132
155,878.0009674164983,2.666691664644038E-5,0.004197215613217572
156,876.7777334110634,2.6524364032062434E-5,0.004223739977249634
157,875.5472973506257,2.676127163663261E-5,0.004250501248886267
158,874.2970770736033,2.6834738956826564E-5,0.004277335987843093
159,873.0401420015492,2.6617131900254017E-5,0.004303953119743347
160,871.7632724789859,2.6788105317633417E-5,0.004330741225060981
161,870.4919745273827,2.673461877808392E-5,0.004357475843839065
162,869.2750767724882,2.661041825275211E-5,0.004384086262091817
163,868.0643580123748,2.6426543020404505E-5,0.004410512805112221
164,866.85700629055,2.6389586108057152E-5,0.004436902391220278
165,865.6654184193151,2.619955624885032E-5,0.004463101947469128
166,864.4365175601001,2.6229395019927785E-5,0.004489331342489055
167,863.204720455094,2.6030634362569537E-5,0.004515361976851625
168,861.986351366779,2.5792078354061588E-5,0.004541154055205686
169,860.7778487374039,2.5718004074278163E-5,0.004566872059279964
170,859.5774810573974,2.585757069556878E-5,0.004592729629975533
171,858.3720304683417,2.5876961612339955E-5,0.004618606591587873
172,857.1655088305396,2.5885804422595545E-5,0.004644492396010468
173,855.9408099914216,2.6093927914616993E-5,0.0046705863239250855
174,854.7140649470841,2.626837602059583E-5,0.004696854699945682
175,853.4879728009766,2.626802274120656E-5,0.004723122722686888
176,852.2764003552389,2.6314287357546E-5,0.0047494370100444345
177,851.0838506906244,2.605072856374659E-5,0.004775487738608181
178,849.8967974537388,2.5952086236738448E-5,0.004801439824844919
179,848.7149245318153,2.598880308042997E-5,0.004827428627925349
180,847.5195952618421,2.6258580663285655E-5,0.004853687208588635
181,846.33199119693,2.6193211362889472E-5,0.004879880419951525
182,845.1357097410418,2.6396819221653272E-5,0.0049062772391731775
183,843.9311619124696,2.6532311066192674E-5,0.00493280955023937
184,842.7566142987415,2.615846459329081E-5,0.004958968014832661
185,841.5863598964299,2.5944660123009933E-5,0.004984912674955671
186,840.4219135120561,2.5744023598657075E-5,0.005010656698554329
187,839.2747966456627,2.5755644836516184E-5,0.005036412343390845
188,838.1298161767115,2.5875041113251074E-5,0.005062287384504096
189,837.0030167513984,2.582741910321863E-5,0.005088114803607314
190,835.8647008453858,2.5943581165092998E-5,0.005114058384772407
191,834.7236441229056,2.604768407218593E-5,0.0051401060688445925
192,833.5575668696313,2.622106362172503E-5,0.0051663271324663175
193,832.4045608085369,2.594826876100872E-5,0.005192275401227326
194,831.2476023557455,2.6099309301769796E-5,0.005218374710529096
195,830.0794344671247,2.635943571887483E-5,0.005244734146247971
196,828.9026227865957,2.6261823092769687E-5,0.005270995969340741
197,827.7276337320579,2.6457188037149708E-5,0.005297453157377891
198,826.5696518569364,2.672683768526941E-5,0.00532417999506316
199,825.4095963489024,2.6869446794814257E-5,0.005351049441857975
200,824.2575359250831,2.667732373254232E-5,0.005377726765590517
201,823.1021509161646,2.6912381549202564E-5,0.00540463914713972
202,821.9654295402041,2.673493605625629E-5,0.005431374083195976
203,820.8342984983525,2.662106152096638E-5,0.005457995144716943
204,819.6987762473121,2.6620997942062705E-5,0.005484616142659006
205,818.5621638574914,2.6244193206902745E-5,0.005510860335865908
206,817.4336682805961,2.62469268011771E-5,0.0055371072626670854
207,816.3198791925633,2.5943925028014306E-5,0.005563051187695099
208,815.1945654611941,2.603229123544935E-5,0.005589083478930549
209,814.089221166191,2.5673919676792447E-5,0.005614757398607341
210,812.9714277959018,2.576497314572348E-5,0.005640522371753065
211,811.8425299374741,2.584375193574156E-5,0.0056663661236888065
212,810.7332599406723,2.5877526770943746E-5,0.00569224365045975
213,809.6015352815868,2.596216331605944E-5,0.005718205813775809
214,808.4906211535563,2.5781586723880956E-5,0.005743987400499691
215,807.3624471637258,2.601877282353138E-5,0.005770006173323222
216,806.2340315487229,2.57238944415388E-5,0.0057957300677647615
217,805.10021387831,2.5934923302648163E-5,0.005821664991067409
218,803.9330952205811,2.629713014643546E-5,0.0058479621212138445
219,802.7506154973206,2.6188071584452864E-5,0.005874150192798297
220,801.5847745838194,2.6315048369653248E-5,0.005900465241167951
221,800.4240684832157,2.6297781552028487E-5,0.005926763022719979
222,799.2749732641406,2.6034344562007736E-5,0.005952797367281987
223,798.115429494508,2.603780952837346E-5,0.005978835176810361
224,796.945963475367,2.6135624459296673E-5,0.0060049708012696575
225,795.7657965203759,2.6015601905364323E-5,0.0060309864031750215
226,794.5543611677803,2.617126752895116E-5,0.006057157670703973
227,793.3424180997883,2.6468293203566296E-5,0.006083625963907539
228,792.1382094827369,2.6460245753132292E-5,0.0061100862096606715
229,790.9538341038738,2.6270537961545777E-5,0.0061363567476222175
230,789.7609844060422,2.6580681091010288E-5,0.0061629374287132275
231,788.5568553065062,2.6643504864545195E-5,0.0061895809335777725
232,787.370547723209,2.6545174334673366E-5,0.006216126107912446
233,786.2039760329474,2.6659056185329447E-5,0.006242785164097775
234,785.0472317718034,2.6684280294503147E-5,0.006269469444392278
235,783.8644408524677,2.6960909182110955E-5,0.006296430353574389
236,782.6686738895773,2.690994434340402E-5,0.006323340297917793
237,781.4739488523063,2.6836226273572794E-5,0.006350176524191366
238,780.2586238725063,2.6901175308170506E-5,0.0063770776994995365
239,779.0561680891481,2.6739733045890403E-5,0.006403817432545427
240,777.8659345656949,2.6782464804158072E-5,0.006430599897349585
241,776.693672760009,2.6799411739058784E-5,0.0064573993090886435
242,775.5066086806077,2.7004397791237722E-5,0.006484403706879882
243,774.3372758217029,2.701199409562291E-5,0.006511415700975505
244,773.1726361697599,2.713915027879052E-5,0.006538554851254295
245,772.0071048304823,2.7008065716431445E-5,0.006565562916970726
246,770.8719846227453,2.6973687833135962E-5,0.006592536604803863
247,769.7486054752218,2.698009086133022E-5,0.006619516695665193
248,768.6197823234629,2.7123184057341794E-5,0.006646639879722535
249,767.5218260558046,2.7234980922662975E-5,0.006673874860645197
250,766.448207727539,2.711658132034374E-5,0.006700991441965541
251,765.3884622075713,2.6805519218662387E-5,0.006727796961184204
252,764.325102480507,2.6757466622293622E-5,0.006754554427806497
253,763.2427009362473,2.688539730749595E-5,0.006781439825113993
254,762.1729643912925,2.688547642984055E-5,0.006808325301543834
255,761.1141389083356,2.711811345027151E-5,0.006835443414994105
256,760.0832136913756,2.731758161709549E-5,0.0068627609966112006
257,759.0535185289607,2.7377039242399836E-5,0.0068901380358536
258,757.9913790325794,2.7623789393192374E-5,0.0069177618252467925
259,756.9030111754821,2.7704431187238463E-5,0.006945466256434031
260,755.8066962196419,2.7618924780579435E-5,0.0069730851812146106
261,754.7081178290974,2.7521427182752384E-5,0.007000606608397363
262,753.6520520439757,2.7373247571107227E-5,0.007027979855968471
263,752.5759342914257,2.72559314568989E-5,0.00705523578742537
264,751.5231745445792,2.714814699965858E-5,0.007082383934425028
265,750.4819842044435,2.7226973397872753E-5,0.007109610907822901
266,749.4289874551723,2.7220891418008802E-5,0.007136831799240909
267,748.3716492040141,2.7294660577138982E-5,0.007164126459818048
268,747.3200377194396,2.7272965706208257E-5,0.007191399425524257
269,746.2817264987973,2.7260686343187735E-5,0.007218660111867444
270,745.232769340656,2.7014302470411875E-5,0.007245674414337856
271,744.1884620860101,2.676072482088241E-5,0.007272435139158739
272,743.1519620652655,2.6812792702112874E-5,0.0072992479318608515
273,742.1047469054703,2.6835248134766606E-5,0.007326083179995618
274,741.0560118679913,2.6711749659877305E-5,0.007352794929655495
275,739.986596409673,2.6620432957231684E-5,0.007379415362612727
276,738.9183949364232,2.6576655206446476E-5,0.007405992017819173
277,737.8364758918093,2.696175394501364E-5,0.007432953771764187
278,736.7447364531423,2.659446099374363E-5,0.007459548232757931
279,735.6713903524175,2.634789211627366E-5,0.007485896124874204
280,734.5859940001503,2.631287151243305E-5,0.0075122089963866375
281,733.4574417961371,2.6318185293149708E-5,0.007538527181679787
282,732.3063213331113,2.6291651428073562E-5,0.0075648188331078605
283,731.1456015785606,2.6144225423239712E-5,0.0075909630585311
284,729.9758212182243,2.6230850479605792E-5,0.007617193909010706
285,728.7788753726702,2.6077840649065266E-5,0.007643271749659771
286,727.6024611322844,2.6073938537803592E-5,0.007669345688197575
287,726.4280015975528,2.6074754949044832E-5,0.00769542044314662
288,725.2697285450217,2.613444914232626E-5,0.007721554892288946
289,724.1315113549081,2.606549246943304E-5,0.007747620384758379
290,722.9946185939875,2.6279003171590784E-5,0.00777389938792997
291,721.8348688325472,2.6341240599792677E-5,0.007800240628529763
292,720.6656353728217,2.666447534690934E-5,0.007826905103876671
293,719.4754711592079,2.6968903692063794E-5,0.007853874007568736
294,718.274304341006,2.706141048884778E-5,0.007880935418057584
295,717.060348757005,2.7117199029194037E-5,0.007908052617086778
296,715.8773278296139,2.6831010503050494E-5,0.00793488362758983
297,714.6790015278801,2.6894430603587896E-5,0.007961778058193416
298,713.4723670671058,2.71438166097672E-5,0.007988921874803184
299,712.3027123110022,2.7200011646915986E-5,0.0080161218864501
300,711.1434794261146,2.720935797290153E-5,0.008043331244423002
301,710.0114286834951,2.6777411073768857E-5,0.008070108655496771
302,708.8362263819472,2.7070195478920902E-5,0.008097178850975691
303,707.6609467598867,2.7265558706495687E-5,0.008124444409682187
304,706.4873944977277,2.7220932971709668E-5,0.008151665342653897
305,705.2373109080943,2.726818934050325E-5,0.008178933531994401
306,703.9938627621044,2.7451702605207432E-5,0.008206385234599609
307,702.7509368457106,2.7533458873490294E-5,0.0082339186934731
308,701.4943275325006,2.71965116468601E-5,0.00826111520511996
309,700.2972815555099,2.7283278677825055E-5,0.008288398483797785
