#t,ESS,tempDiff,temp
0,200.00000000000065,0.0,0.0
1,199.9997999999999,6.619459626418024E-6,6.619459626418024E-6
2,199.99920645712328,6.6659679486658115E-6,1.3285427575083835E-5
3,199.99822681281046,6.725746602536445E-6,2.001117417762028E-5
4,199.99685428978665,6.76376931901274E-6,2.677494349663302E-5
5,199.99511865283765,6.860213721582882E-6,3.36351572182159E-5
6,199.9930214536475,6.943112129132652E-6,4.057826934734855E-5
7,199.99053367953206,6.856068861660415E-6,4.743433820900897E-5
8,199.98769055249747,6.902874848673368E-6,5.4337213057682335E-5
9,199.98449058243196,6.999515203488158E-6,6.13367282611705E-5
10,199.98095460820437,7.1815890808388415E-6,6.851831734200933E-5
11,199.97706003081015,7.222562286803793E-6,7.574087962881312E-5
12,199.97282870371222,7.196946643943126E-6,8.293782627275625E-5
13,199.96825218155234,7.190068593766891E-6,9.012789486652314E-5
14,199.963379470227,7.122790297704457E-6,9.725068516422759E-5
15,199.95817901380008,7.02845356440371E-6,1.0427913872863131E-4
16,199.95269552252793,7.003297589024401E-6,1.1128243631765571E-4
17,199.94689698282798,7.0029142496357235E-6,1.1828535056729143E-4
18,199.94080519840844,7.027244789487243E-6,1.2531259535677867E-4
19,199.93436918399163,7.203110122756156E-6,1.3251570547953483E-4
20,199.9275785186861,7.080671740791087E-6,1.395963772203259E-4
21,199.92050321882613,7.193044766376448E-6,1.4678942198670234E-4
22,199.91318967499714,7.142124603206139E-6,1.5393154658990848E-4
23,199.90558917047377,7.094514687759766E-6,1.6102606127766826E-4
24,199.8976755240856,7.066124412262899E-6,1.6809218568993115E-4
25,199.8894318352659,6.941891960672513E-6,1.7503407765060366E-4
26,199.88090432902297,6.955574870861371E-6,1.8198965252146502E-4
27,199.87204527435054,7.0932316755171805E-6,1.890828841969822E-4
28,199.86296685009165,7.272663736864517E-6,1.9635554793384673E-4
29,199.85358743255046,7.310489458998337E-6,2.0366603739284506E-4
30,199.84399613893078,7.339597558852973E-6,2.1100563495169802E-4
31,199.83425817091052,7.344939968955553E-6,2.183505749206536E-4
32,199.82428774443494,7.223125139315051E-6,2.2557370005996864E-4
33,199.81423797441886,7.301626098114383E-6,2.3287532615808303E-4
34,199.80399375617324,7.2333094595530765E-6,2.401086356176361E-4
35,199.79351391659915,7.228578157724652E-6,2.473372137753608E-4
36,199.7828344109776,7.389982101687558E-6,2.5472719587704836E-4
37,199.77204167166815,7.30885768461491E-6,2.620360535616633E-4
38,199.76096427423047,7.435618832191886E-6,2.694716723938552E-4
39,199.74964082670493,7.3891497516415706E-6,2.768608221454968E-4
40,199.73825260261398,7.57114340648203E-6,2.8443196555197884E-4
41,199.72663167633078,7.4247905124231064E-6,2.9185675606440195E-4
42,199.71490585175852,7.49029383079277E-6,2.9934704989519474E-4
43,199.7030329512486,7.379907371216071E-6,3.067269572664108E-4
44,199.6909786611982,7.191884899618149E-6,3.139188421660289E-4
45,199.67843406303717,7.213969817459731E-6,3.2113281198348865E-4
46,199.66579056443362,7.262330415134016E-6,3.2839514239862267E-4
47,199.65305026662614,7.1417410673265665E-6,3.355368834659492E-4
48,199.63995040707013,7.052002180875801E-6,3.4258888564682504E-4
49,199.62661229773983,7.03034032986566E-6,3.496192259766907E-4
50,199.61295218352242,7.0420823305605435E-6,3.5666130830725124E-4
51,199.5991730560629,6.950360921893629E-6,3.636116692291449E-4
52,199.5853355591104,6.908931197450112E-6,3.70520600426595E-4
53,199.57152221095006,6.762502044362386E-6,3.772831024709574E-4
54,199.5573576176259,6.778621468280751E-6,3.8406172393923814E-4
55,199.54305184868304,6.719999128599284E-6,3.907817230678374E-4
56,199.52838129524878,6.570170729998148E-6,3.9735189379783555E-4
57,199.51346562708238,6.595995309792101E-6,4.039478891076276E-4
58,199.49864086474716,6.5499019860469485E-6,4.104977910936746E-4
59,199.48387131897138,6.575754031609324E-6,4.170735451252839E-4
60,199.46891316271194,6.605229149247332E-6,4.2367877427453124E-4
61,199.45375532430958,6.528981234041252E-6,4.302077555085725E-4
62,199.4384207084688,6.5460340806929725E-6,4.3675378958926546E-4
63,199.42280668564612,6.497310822258057E-6,4.432511004115235E-4
64,199.4067928156877,6.490819414447668E-6,4.4974191982597117E-4
65,199.3908053353203,6.558026430384651E-6,4.5629994625635584E-4
66,199.37465645657733,6.551087799796053E-6,4.628510340561519E-4
67,199.35783805489075,6.44205784157932E-6,4.692930918977312E-4
68,199.34084174646523,6.513824890764529E-6,4.758069167884957E-4
69,199.32331247130466,6.5688643727034565E-6,4.8237578116119915E-4
70,199.30561210896096,6.733366075081592E-6,4.891091472362807E-4
71,199.28773995969544,6.850431113731705E-6,4.959595783500124E-4
72,199.26980381165114,6.904755732657785E-6,5.028643340826703E-4
73,199.2516094679255,6.769400425502017E-6,5.096337345081723E-4
74,199.23299394552967,6.812379611926009E-6,5.164461141200983E-4
75,199.21408631817368,6.8388446821420395E-6,5.232849588022403E-4
76,199.19478714120243,6.860476273220067E-6,5.301454350754605E-4
77,199.17529565808545,6.801526282039673E-6,5.369469613575002E-4
78,199.1551199128978,6.832401318988257E-6,5.437793626764884E-4
79,199.13452314952275,6.821448854703589E-6,5.50600811531192E-4
80,199.1133008813283,6.874882771020274E-6,5.574756943022123E-4
81,199.09183536708323,6.930955018974354E-6,5.644066493211866E-4
82,199.07005892787672,6.937081256546323E-6,5.71343730577733E-4
83,199.04833364625046,6.900139157153118E-6,5.782438697348861E-4
84,199.02676633031592,6.854863056068097E-6,5.850987327909542E-4
85,199.0049692501158,6.782287368135259E-6,5.918810201590894E-4
86,198.98306179942742,6.817113653944311E-6,5.986981338130337E-4
87,198.96082287518666,6.877933293953407E-6,6.055760671069871E-4
88,198.93855607927617,6.857710939574447E-6,6.124337780465615E-4
89,198.91594400735815,6.7612387956983625E-6,6.191950168422599E-4
90,198.89285731288513,6.698042356010491E-6,6.258930591982704E-4
91,198.8699097961969,6.75086244107572E-6,6.326439216393461E-4
92,198.84645487607182,6.674206409035617E-6,6.393181280483817E-4
93,198.82299700228913,6.654452694143265E-6,6.45972580742525E-4
94,198.79936602246528,6.661445694394782E-6,6.526340264369197E-4
95,198.77556683438277,6.652386320597143E-6,6.592864127575169E-4
96,198.7519926263845,6.577768807365777E-6,6.658641815648827E-4
97,198.72839834797637,6.558381917892551E-6,6.724225634827752E-4
98,198.70464368925366,6.494232369383581E-6,6.789167958521588E-4
99,198.68038848675354,6.488296506641689E-6,6.854050923588004E-4
100,198.6558995204149,6.549557968393413E-6,6.919546503271938E-4
101,198.63201842468345,6.500511951237907E-6,6.984551622784317E-4
102,198.6077338998911,6.476266332410159E-6,7.049314286108419E-4
103,198.58327638719697,6.476965571230905E-6,7.114083941820728E-4
104,198.55831413683848,6.502365886060176E-6,7.17910760068133E-4
105,198.53311126506557,6.688679396416719E-6,7.245994394645497E-4
106,198.50809305729487,6.657773754708928E-6,7.312572132192587E-4
107,198.4833957691904,6.808942034258574E-6,7.380661552535173E-4
108,198.45906821005133,6.569438443427334E-6,7.446355936969446E-4
109,198.43475261486597,6.601059520831642E-6,7.512366532177763E-4
110,198.41044959951273,6.647860686674942E-6,7.578845139044512E-4
111,198.3860574310924,6.634720068343544E-6,7.645192339727948E-4
112,198.36145761289464,6.666015237282096E-6,7.711852492100769E-4
113,198.3367263573851,6.710326161805895E-6,7.778955753718829E-4
114,198.3118489357839,6.664445423269519E-6,7.845600207951524E-4
115,198.287247704474,6.586283195455105E-6,7.911463039906075E-4
116,198.26310717909777,6.594360349771205E-6,7.977406643403787E-4
117,198.23882631356292,6.655105492148665E-6,8.043957698325274E-4
118,198.21487132681168,6.64620236934057E-6,8.11041972201868E-4
119,198.1904832201949,6.634241475400806E-6,8.176762136772688E-4
120,198.16631611733638,6.579227889850032E-6,8.242554415671189E-4
121,198.14161621902255,6.67265446939119E-6,8.309280960365101E-4
122,198.1177838777123,6.863945745443212E-6,8.377920417819533E-4
123,198.09357401269955,6.948667671923226E-6,8.447407094538765E-4
124,198.0688440664747,6.824242424402833E-6,8.515649518782793E-4
125,198.04348442537776,6.881626609753914E-6,8.584465784880332E-4
126,198.01729626639934,7.094099863222795E-6,8.65540678351256E-4
127,197.9909176658881,7.0353013821394025E-6,8.725759797333953E-4
128,197.96403630098936,6.945411541432409E-6,8.795213912748277E-4
129,197.93702706022245,7.050681926131221E-6,8.865720732009589E-4
130,197.90943259761258,6.9470757737910534E-6,8.9351914897475E-4
131,197.88199714936906,7.029434566215905E-6,9.005485835409659E-4
132,197.85487696181576,7.0581253208570455E-6,9.07606708861823E-4
133,197.82739429447489,7.038961237985168E-6,9.146456700998082E-4
134,197.7999495621227,6.947580460420473E-6,9.215932505602287E-4
135,197.77175225168233,6.940324113788806E-6,9.285335746740175E-4
136,197.74311892851603,6.9763025693798146E-6,9.355098772433973E-4
137,197.714562855947,6.85589044690263E-6,9.423657676903E-4
138,197.68563183303021,6.911958176941938E-6,9.49277725867242E-4
139,197.65626328696456,6.863920177234886E-6,9.561416460444769E-4
140,197.62703152696346,6.739636793991058E-6,9.62881282838468E-4
141,197.59764921846926,6.783258339081861E-6,9.696645411775499E-4
142,197.5686683050108,6.775527633827087E-6,9.76440068811377E-4
143,197.5394614589647,6.729076158980676E-6,9.831691449703577E-4
144,197.51029267981136,6.693156959412385E-6,9.8986230192977E-4
145,197.48103433514092,6.65716185316874E-6,9.965194637829387E-4
146,197.45128044981115,6.76439889114536E-6,0.001003283862674084
147,197.42215256404785,6.66632059814268E-6,0.0010099501832722267
148,197.39287733613904,6.540169744998124E-6,0.001016490353017225
149,197.36289464221846,6.713553704215013E-6,0.00102320390672144
150,197.33343317980635,6.672478172651203E-6,0.001029876384894091
151,197.30401834222516,6.703478313051748E-6,0.0010365798632071428
152,197.27437438694255,6.762676778021338E-6,0.0010433425399851643
153,197.24464371664163,6.668508690536606E-6,0.0010500110486757008
154,197.21443953098006,6.701279210377957E-6,0.0010567123278860788
155,197.18541630492203,6.671973602056547E-6,0.0010633843014881354
156,197.15717833902613,6.577057526070719E-6,0.001069961359014206
157,197.12882399661586,6.473775608070732E-6,0.0010764351346222768
158,197.10005559217788,6.318266975403279E-6,0.0010827534015976801
159,197.07099975208013,6.444921746575131E-6,0.0010891983233442552
160,197.04195890275477,6.393766181819762E-6,0.001095592089526075
161,197.01274263694867,6.34493305481853E-6,0.0011019370225808934
162,196.98394872970354,6.38318566148317E-6,0.0011083202082423766
163,196.95451210617765,6.260010114188738E-6,0.0011145802183565652
164,196.92552826207753,6.295028875117396E-6,0.0011208752472316827
165,196.89623740304253,6.285744507290866E-6,0.0011271609917389736
166,196.86598945731666,6.297105565455506E-6,0.001133458097304429
167,196.83513937949542,6.178365641455411E-6,0.0011396364629458844
168,196.80384855828467,6.273181781913106E-6,0.0011459096447277975
169,196.7723240474831,6.296128301702968E-6,0.0011522057730295006
170,196.74061805771768,6.351397882620035E-6,0.0011585571709121206
171,196.70849473015875,6.300205278154014E-6,0.0011648573761902745
172,196.67587818827508,6.3299900910532395E-6,0.0011711873662813277
173,196.6427994106226,6.398716500392218E-6,0.0011775860827817198
174,196.60950484436978,6.47334331504906E-6,0.0011840594260967689
175,196.57643082996012,6.460778069706097E-6,0.001190520204166475
176,196.54328041096392,6.572073511740888E-6,0.0011970922776782158
177,196.51009460852325,6.5704247785240946E-6,0.0012036627024567398
178,196.4767589616405,6.511322335729015E-6,0.0012101740247924687
179,196.44358226321384,6.4821736887551085E-6,0.0012166561984812238
180,196.4107069026695,6.604790758655175E-6,0.001223260989239879
181,196.37871111451173,6.588602750512848E-6,0.0012298495919903917
182,196.34713363511844,6.501569471037627E-6,0.0012363511614614294
183,196.31631784604448,6.3687536014954826E-6,0.001242719915062925
184,196.28541237115994,6.354907752078898E-6,0.0012490748228150038
185,196.25453104017564,6.355151699609061E-6,0.0012554299745146128
186,196.22383058883372,6.231489070202133E-6,0.001261661463584815
187,196.1932779006229,6.296639742691033E-6,0.0012679581033275059
188,196.16266379221156,6.188566635397912E-6,0.0012741466699629038
189,196.13251073590155,6.236593461595156E-6,0.001280383263424499
190,196.10179781428167,6.157506995504881E-6,0.001286540770420004
191,196.0709204056304,6.193589568856786E-6,0.0012927343599888608
192,196.04005530718183,6.317800944239099E-6,0.0012990521609331
193,196.00954444798327,6.267134064077868E-6,0.0013053192949971778
194,195.9802428851916,6.30413793636452E-6,0.0013116234329335424
195,195.95100303275686,6.373509319093815E-6,0.0013179969422526363
196,195.92142315071243,6.278735706283473E-6,0.0013242756779589197
197,195.89171346234855,6.457338797880797E-6,0.0013307330167568006
198,195.8612172658116,6.4888549630282935E-6,0.001337221871719829
199,195.83041416751436,6.517916472043343E-6,0.0013437397881918723
200,195.79960410263678,6.511165584335062E-6,0.0013502509537762074
201,195.7678806216339,6.444128104871543E-6,0.001356695081881079
202,195.7365424999618,6.4185078678690205E-6,0.001363113589748948
203,195.7051898938306,6.492397230274119E-6,0.0013696059869792222
204,195.67307683646635,6.505360252943641E-6,0.0013761113472321657
205,195.64268320506136,6.5157678569015325E-6,0.0013826271150890672
206,195.61249140694648,6.3889204728230345E-6,0.00138901603556189
207,195.58075025223343,6.3778702305295635E-6,0.0013953939057924196
208,195.54864118466773,6.504032085718949E-6,0.0014018979378781385
209,195.51561771350893,6.414895354367704E-6,0.001408312833232506
210,195.4821634820042,6.4997642268081444E-6,0.0014148125974593143
211,195.44907191591767,6.556700459696336E-6,0.0014213692979190107
212,195.41520857818466,6.514760143249832E-6,0.0014278840580622604
213,195.38215939580962,6.547708740666848E-6,0.0014344317668029273
214,195.34890578007446,6.481692524917015E-6,0.0014409134593278443
215,195.3152013971244,6.331410954788831E-6,0.0014472448702826332
216,195.2817751487994,6.289753297310821E-6,0.001453534623579944
217,195.24804731585004,6.287668065018762E-6,0.0014598222916449627
218,195.21484789945555,6.313234803781882E-6,0.0014661355264487445
219,195.1822631856384,6.223480423770595E-6,0.001472359006872515
220,195.14871887574853,6.121791862803063E-6,0.001478480798735318
221,195.11473119081768,6.218063046209127E-6,0.0014846988617815272
222,195.08126687579613,6.1895522481772954E-6,0.0014908884140297045
223,195.04788676032484,6.187239814832188E-6,0.0014970756538445367
224,195.0147086405369,6.119984557711471E-6,0.0015031956384022483
225,194.98128748846025,6.072393923148063E-6,0.0015092680323253963
226,194.94699501976106,6.081729147750986E-6,0.0015153497614731474
227,194.9125940388305,6.174610520008212E-6,0.0015215243719931557
228,194.87839300169853,6.242179401398807E-6,0.0015277665513945544
229,194.84411139085086,6.257493738546235E-6,0.0015340240451331008
230,194.8100984529393,6.400542968724733E-6,0.0015404245881018256
231,194.77513484735908,6.438744727565292E-6,0.0015468633328293909
232,194.73976936046853,6.447807145227579E-6,0.0015533111399746184
233,194.70357835854446,6.566119805914382E-6,0.001559877259780533
234,194.66643770845877,6.60008408510034E-6,0.0015664773438656332
235,194.6287510524944,6.490224391251821E-6,0.001572967568256885
236,194.58974935416552,6.643103380947706E-6,0.0015796106716378325
237,194.55139614863037,6.599554210307183E-6,0.0015862102258481397
238,194.51181812370507,6.528060666205987E-6,0.0015927382865143457
239,194.47169824526532,6.569957053164117E-6,0.0015993082435675097
240,194.4316798447589,6.506090885546126E-6,0.0016058143344530559
241,194.3912017662104,6.524039978610325E-6,0.0016123383744316663
242,194.35065451262633,6.51175061307915E-6,0.0016188501250447454
243,194.3107639442001,6.5569094585988795E-6,0.0016254070345033443
244,194.2698698306934,6.668905348023294E-6,0.0016320759398513677
245,194.22996800297165,6.673389859430083E-6,0.0016387493297107978
246,194.19114177676974,6.638181290704838E-6,0.0016453875110015027
247,194.1522541512196,6.623739774405971E-6,0.0016520112507759086
248,194.11285969029674,6.660690619780559E-6,0.001658671941395689
249,194.07328680242887,6.649526204904387E-6,0.0016653214676005934
250,194.03347957017758,6.721456529910295E-6,0.0016720429241305038
251,193.9945262370679,6.810996152661232E-6,0.0016788539202831651
252,193.95624205789073,6.804797956874424E-6,0.0016856587182400395
253,193.91776082439804,6.814837072573201E-6,0.0016924735553126126
254,193.88013657500608,6.8026365020187435E-6,0.0016992761918146315
255,193.84224685546963,6.657119129746818E-6,0.0017059333109443783
256,193.80395360124854,6.815949734386008E-6,0.0017127492606787643
257,193.76617621964874,6.868890366166931E-6,0.0017196181510449314
258,193.72882451260537,6.914494274548914E-6,0.0017265326453194802
259,193.69155679074606,6.858077196093803E-6,0.0017333907225155739
260,193.65618966169163,6.6494350993084045E-6,0.0017400401576148823
261,193.62175799241686,6.627201681175252E-6,0.0017466673592960575
262,193.58788410137737,6.655364507993655E-6,0.001753322723804051
263,193.55325810474304,6.564154507247653E-6,0.0017598868783112987
264,193.5178462343262,6.533737599178658E-6,0.0017664206159104774
265,193.48173448947887,6.579714789455333E-6,0.0017730003306999328
266,193.44554519860307,6.622338127797957E-6,0.0017796226688277306
267,193.40943963862975,6.650105323923284E-6,0.001786272774151654
268,193.37268453531112,6.742743095720114E-6,0.001793015517247374
269,193.33670617477583,6.713770631443841E-6,0.001799729287878818
270,193.29947489712308,6.692295954730787E-6,0.0018064215838335487
271,193.2627256558964,6.713759143290162E-6,0.0018131353429768388
272,193.22603206573697,6.80063954171152E-6,0.0018199359825185502
273,193.18926048336016,6.829011860935137E-6,0.0018267649943794853
274,193.15201850210244,6.819382763309609E-6,0.001833584377142795
275,193.11437606896004,6.8013412446751595E-6,0.00184038571838747
276,193.07572315057413,6.812876577763417E-6,0.0018471985949652335
277,193.0366742408257,6.580847829914757E-6,0.0018537794427951483
278,192.9971199516943,6.5339306608792855E-6,0.0018603133734560275
279,192.95812849930653,6.668273306386674E-6,0.0018669816467624142
280,192.91824543998618,6.607392366083317E-6,0.0018735890391284975
281,192.87630780678944,6.563890264492839E-6,0.0018801529293929903
282,192.83509401516903,6.577840442734396E-6,0.0018867307698357246
283,192.7943709722567,6.574583778743786E-6,0.0018933053536144683
284,192.75321941889882,6.6521330529647284E-6,0.001899957486667433
285,192.71215404032114,6.58027031730259E-6,0.0019065377569847356
286,192.67196312663185,6.496156542830659E-6,0.0019130339135275663
287,192.63196442298616,6.517666720524861E-6,0.0019195515802480911
288,192.59090046023272,6.413817292972454E-6,0.0019259653975410636
289,192.54990962074197,6.325295184440001E-6,0.0019322906927255036
290,192.51003119979507,6.367762891426748E-6,0.0019386584556169303
291,192.4701523835368,6.3840645000673925E-6,0.0019450425201169976
292,192.43018306188114,6.403143954389338E-6,0.0019514456640713869
293,192.39022484722932,6.448523974826823E-6,0.0019578941880462135
294,192.35040456612703,6.3606123498656934E-6,0.001964254800396079
295,192.30983658407754,6.349522036549655E-6,0.0019706043224326287
296,192.26959481669874,6.384628614906954E-6,0.0019769889510475357
297,192.22844232544995,6.378409874494603E-6,0.0019833673609220303
298,192.18755581319527,6.397137511179535E-6,0.00198976449843321
299,192.1462207249972,6.342096840224694E-6,0.0019961065952734344
300,192.10522249334616,6.337600819085333E-6,0.0020024441960925198
301,192.06344939170287,6.32781565610811E-6,0.002008772011748628
302,192.02077956892677,6.247519010804921E-6,0.0020150195307594328
303,191.97745814550262,6.229901784379547E-6,0.002021249432543812
304,191.93401245129132,6.343694487631688E-6,0.002027593127031444
305,191.88997637635777,6.350298468924553E-6,0.0020339434255003683
306,191.84755890248735,6.421858209830537E-6,0.0020403652837101987
307,191.80451294241442,6.432217380492927E-6,0.0020467975010906914
