#t,ESS,tempDiff,temp
0,200.00000000000065,0.0,0.0
1,199.99975469370716,6.619459626418024E-6,6.619459626418024E-6
2,199.99901988024672,6.6659679486658115E-6,1.3285427575083835E-5
3,199.99777321075155,6.725746602536445E-6,2.001117417762028E-5
4,199.9960168222431,6.76376931901274E-6,2.677494349663302E-5
5,199.99370027241292,6.860213721582882E-6,3.36351572182159E-5
6,199.9907658618321,6.943112129132652E-6,4.057826934734855E-5
7,199.9873340978388,6.856068861660415E-6,4.743433820900897E-5
8,199.983353757901,6.902874848673368E-6,5.4337213057682335E-5
9,199.9788001325179,6.999515203488158E-6,6.13367282611705E-5
10,199.9734804669995,7.1815890808388415E-6,6.851831734200933E-5
11,199.9675038250498,7.222562286803793E-6,7.574087962881312E-5
12,199.9608884189953,7.196946643943126E-6,8.293782627275625E-5
13,199.95375805906562,7.190068593766891E-6,9.012789486652314E-5
14,199.9461352940316,7.122790297704457E-6,9.725068516422759E-5
15,199.93816643514342,7.02845356440371E-6,1.0427913872863131E-4
16,199.92963353322287,7.003297589024401E-6,1.1128243631765571E-4
17,199.920794483923,7.0029142496357235E-6,1.1828535056729143E-4
18,199.91157297947507,7.027244789487243E-6,1.2531259535677867E-4
19,199.9015069966654,7.203110122756156E-6,1.3251570547953483E-4
20,199.89135335834555,7.080671740791087E-6,1.395963772203259E-4
21,199.88039236469297,7.193044766376448E-6,1.4678942198670234E-4
22,199.86886857983174,7.142124603206139E-6,1.5393154658990848E-4
23,199.8567782298482,7.094514687759766E-6,1.6102606127766826E-4
24,199.84443845639663,7.066124412262899E-6,1.6809218568993115E-4
25,199.83176791579578,6.941891960672513E-6,1.7503407765060366E-4
26,199.81884103521097,6.955574870861371E-6,1.8198965252146502E-4
27,199.8052049322643,7.0932316755171805E-6,1.890828841969822E-4
28,199.79071457626625,7.272663736864517E-6,1.9635554793384673E-4
29,199.77600379372254,7.310489458998337E-6,2.0366603739284506E-4
30,199.76061735089314,7.339597558852973E-6,2.1100563495169802E-4
31,199.74470911539387,7.344939968955553E-6,2.183505749206536E-4
32,199.7283836516819,7.223125139315051E-6,2.2557370005996864E-4
33,199.71135435167056,7.301626098114383E-6,2.3287532615808303E-4
34,199.69398750300897,7.2333094595530765E-6,2.401086356176361E-4
35,199.67623650464407,7.228578157724652E-6,2.473372137753608E-4
36,199.6572795844878,7.389982101687558E-6,2.5472719587704836E-4
37,199.63860071672946,7.30885768461491E-6,2.620360535616633E-4
38,199.61919485504345,7.435618832191886E-6,2.694716723938552E-4
39,199.59952513733862,7.3891497516415706E-6,2.768608221454968E-4
40,199.57865856057728,7.57114340648203E-6,2.8443196555197884E-4
41,199.5576601103014,7.4247905124231064E-6,2.9185675606440195E-4
42,199.53606432820524,7.49029383079277E-6,2.9934704989519474E-4
43,199.51431781099532,7.379907371216071E-6,3.067269572664108E-4
44,199.49227456104742,7.191884899618149E-6,3.139188421660289E-4
45,199.46949263408194,7.213969817459731E-6,3.2113281198348865E-4
46,199.44592619409573,7.262330415134016E-6,3.2839514239862267E-4
47,199.42301818278418,7.1417410673265665E-6,3.355368834659492E-4
48,199.3998123356529,7.052002180875801E-6,3.4258888564682504E-4
49,199.37649850369937,7.03034032986566E-6,3.496192259766907E-4
50,199.35277469963967,7.0420823305605435E-6,3.5666130830725124E-4
51,199.32912561772417,6.950360921893629E-6,3.636116692291449E-4
52,199.30502416652334,6.908931197450112E-6,3.70520600426595E-4
53,199.28078827749414,6.762502044362386E-6,3.772831024709574E-4
54,199.25583724769166,6.778621468280751E-6,3.8406172393923814E-4
55,199.23046795725898,6.719999128599284E-6,3.907817230678374E-4
56,199.20531839377225,6.570170729998148E-6,3.9735189379783555E-4
57,199.17948019228152,6.595995309792101E-6,4.039478891076276E-4
58,199.15377652496997,6.5499019860469485E-6,4.104977910936746E-4
59,199.1277002415071,6.575754031609324E-6,4.170735451252839E-4
60,199.1007471035331,6.605229149247332E-6,4.2367877427453124E-4
61,199.07430378333896,6.528981234041252E-6,4.302077555085725E-4
62,199.04795617665536,6.5460340806929725E-6,4.3675378958926546E-4
63,199.02170456972837,6.497310822258057E-6,4.432511004115235E-4
64,198.9948168954021,6.490819414447668E-6,4.4974191982597117E-4
65,198.96724502648243,6.558026430384651E-6,4.5629994625635584E-4
66,198.94009276332113,6.551087799796053E-6,4.628510340561519E-4
67,198.9134430976967,6.44205784157932E-6,4.692930918977312E-4
68,198.8864777847105,6.513824890764529E-6,4.758069167884957E-4
69,198.85861487060083,6.5688643727034565E-6,4.8237578116119915E-4
70,198.82966975292038,6.733366075081592E-6,4.891091472362807E-4
71,198.80065941457124,6.850431113731705E-6,4.959595783500124E-4
72,198.77113915784005,6.904755732657785E-6,5.028643340826703E-4
73,198.74223963149655,6.769400425502017E-6,5.096337345081723E-4
74,198.71292307375384,6.812379611926009E-6,5.164461141200983E-4
75,198.68292268809662,6.8388446821420395E-6,5.232849588022403E-4
76,198.65290737818975,6.860476273220067E-6,5.301454350754605E-4
77,198.6231294022661,6.801526282039673E-6,5.369469613575002E-4
78,198.5931760831676,6.832401318988257E-6,5.437793626764884E-4
79,198.563210662217,6.821448854703589E-6,5.50600811531192E-4
80,198.53278973861072,6.874882771020274E-6,5.574756943022123E-4
81,198.50194883712035,6.930955018974354E-6,5.644066493211866E-4
82,198.4715586294038,6.937081256546323E-6,5.71343730577733E-4
83,198.4405962521341,6.900139157153118E-6,5.782438697348861E-4
84,198.41016806962912,6.854863056068097E-6,5.850987327909542E-4
85,198.37975751285882,6.782287368135259E-6,5.918810201590894E-4
86,198.34859149635588,6.817113653944311E-6,5.986981338130337E-4
87,198.31728709992808,6.877933293953407E-6,6.055760671069871E-4
88,198.28568819914338,6.857710939574447E-6,6.124337780465615E-4
89,198.2540378270307,6.7612387956983625E-6,6.191950168422599E-4
90,198.22307897912717,6.698042356010491E-6,6.258930591982704E-4
91,198.19232664672202,6.75086244107572E-6,6.326439216393461E-4
92,198.16179491517926,6.674206409035617E-6,6.393181280483817E-4
93,198.13100125931777,6.654452694143265E-6,6.45972580742525E-4
94,198.0990556226984,6.661445694394782E-6,6.526340264369197E-4
95,198.06669978389039,6.652386320597143E-6,6.592864127575169E-4
96,198.03462808865348,6.577768807365777E-6,6.658641815648827E-4
97,198.00201615673302,6.558381917892551E-6,6.724225634827752E-4
98,197.96925364690978,6.494232369383581E-6,6.789167958521588E-4
99,197.93646081051057,6.488296506641689E-6,6.854050923588004E-4
100,197.90277680109696,6.549557968393413E-6,6.919546503271938E-4
101,197.86895442550863,6.500511951237907E-6,6.984551622784317E-4
102,197.83516393574513,6.476266332410159E-6,7.049314286108419E-4
103,197.8012665414562,6.476965571230905E-6,7.114083941820728E-4
104,197.76655051034857,6.502365886060176E-6,7.17910760068133E-4
105,197.73096592791015,6.688679396416719E-6,7.245994394645497E-4
106,197.69512870827057,6.657773754708928E-6,7.312572132192587E-4
107,197.65817719684352,6.808942034258574E-6,7.380661552535173E-4
108,197.62268558159525,6.569438443427334E-6,7.446355936969446E-4
109,197.58671012464075,6.601059520831642E-6,7.512366532177763E-4
110,197.550621201229,6.647860686674942E-6,7.578845139044512E-4
111,197.5141027157295,6.634720068343544E-6,7.645192339727948E-4
112,197.4777752123725,6.666015237282096E-6,7.711852492100769E-4
113,197.44104998430916,6.710326161805895E-6,7.778955753718829E-4
114,197.40377132483255,6.664445423269519E-6,7.845600207951524E-4
115,197.36728206731692,6.586283195455105E-6,7.911463039906075E-4
116,197.32981319485975,6.594360349771205E-6,7.977406643403787E-4
117,197.29234201767412,6.655105492148665E-6,8.043957698325274E-4
118,197.25435094345704,6.64620236934057E-6,8.11041972201868E-4
119,197.2166980875927,6.634241475400806E-6,8.176762136772688E-4
120,197.17923217324872,6.579227889850032E-6,8.242554415671189E-4
121,197.14058081996012,6.67265446939119E-6,8.309280960365101E-4
122,197.10004661422846,6.863945745443212E-6,8.377920417819533E-4
123,197.05906333573836,6.948667671923226E-6,8.447407094538765E-4
124,197.0190936083613,6.824242424402833E-6,8.515649518782793E-4
125,196.97813982792735,6.881626609753914E-6,8.584465784880332E-4
126,196.93620481514847,7.094099863222795E-6,8.65540678351256E-4
127,196.8950788565988,7.0353013821394025E-6,8.725759797333953E-4
128,196.8548240476384,6.945411541432409E-6,8.795213912748277E-4
129,196.81394780172684,7.050681926131221E-6,8.865720732009589E-4
130,196.77308289237578,6.9470757737910534E-6,8.9351914897475E-4
131,196.73119222506352,7.029434566215905E-6,9.005485835409659E-4
132,196.689701923256,7.0581253208570455E-6,9.07606708861823E-4
133,196.6482052044601,7.038961237985168E-6,9.146456700998082E-4
134,196.60644359343448,6.947580460420473E-6,9.215932505602287E-4
135,196.56448874488112,6.940324113788806E-6,9.285335746740175E-4
136,196.52271710065003,6.9763025693798146E-6,9.355098772433973E-4
137,196.48114697007213,6.85589044690263E-6,9.423657676903E-4
138,196.43747748107043,6.911958176941938E-6,9.49277725867242E-4
139,196.3939261394192,6.863920177234886E-6,9.561416460444769E-4
140,196.35116649263895,6.739636793991058E-6,9.62881282838468E-4
141,196.30887282413724,6.783258339081861E-6,9.696645411775499E-4
142,196.26499166400873,6.775527633827087E-6,9.76440068811377E-4
143,196.22182827812256,6.729076158980676E-6,9.831691449703577E-4
144,196.1785593616043,6.693156959412385E-6,9.8986230192977E-4
145,196.1355612803141,6.65716185316874E-6,9.965194637829387E-4
146,196.09093766558865,6.76439889114536E-6,0.001003283862674084
147,196.0477291676729,6.66632059814268E-6,0.0010099501832722267
148,196.00442042072598,6.540169744998124E-6,0.001016490353017225
149,195.9590521415832,6.713553704215013E-6,0.00102320390672144
150,195.91377185348142,6.672478172651203E-6,0.001029876384894091
151,195.86873566805832,6.703478313051748E-6,0.0010365798632071428
152,195.82304578601037,6.762676778021338E-6,0.0010433425399851643
153,195.7778678715816,6.668508690536606E-6,0.0010500110486757008
154,195.73182039938197,6.701279210377957E-6,0.0010567123278860788
155,195.68569617885896,6.671973602056547E-6,0.0010633843014881354
156,195.63983927067744,6.577057526070719E-6,0.001069961359014206
157,195.59490299235355,6.473775608070732E-6,0.0010764351346222768
158,195.5503204487848,6.318266975403279E-6,0.0010827534015976801
159,195.50592910293778,6.444921746575131E-6,0.0010891983233442552
160,195.46180935422106,6.393766181819762E-6,0.001095592089526075
161,195.4187773395016,6.34493305481853E-6,0.0011019370225808934
162,195.37616954489977,6.38318566148317E-6,0.0011083202082423766
163,195.33387562145697,6.260010114188738E-6,0.0011145802183565652
164,195.29135640084584,6.295028875117396E-6,0.0011208752472316827
165,195.24810943422958,6.285744507290866E-6,0.0011271609917389736
166,195.20418425639974,6.297105565455506E-6,0.001133458097304429
167,195.1607512318187,6.178365641455411E-6,0.0011396364629458844
168,195.11743967241628,6.273181781913106E-6,0.0011459096447277975
169,195.07484656318704,6.296128301702968E-6,0.0011522057730295006
170,195.03154463526133,6.351397882620035E-6,0.0011585571709121206
171,194.98950680908126,6.300205278154014E-6,0.0011648573761902745
172,194.948138241651,6.3299900910532395E-6,0.0011711873662813277
173,194.9063785049704,6.398716500392218E-6,0.0011775860827817198
174,194.86398338602663,6.47334331504906E-6,0.0011840594260967689
175,194.82127805832533,6.460778069706097E-6,0.001190520204166475
176,194.7784212078038,6.572073511740888E-6,0.0011970922776782158
177,194.7353826196853,6.5704247785240946E-6,0.0012036627024567398
178,194.6928298255438,6.511322335729015E-6,0.0012101740247924687
179,194.6505360633857,6.4821736887551085E-6,0.0012166561984812238
180,194.6067124614624,6.604790758655175E-6,0.001223260989239879
181,194.56238236200622,6.588602750512848E-6,0.0012298495919903917
182,194.51923602979028,6.501569471037627E-6,0.0012363511614614294
183,194.47640244222103,6.3687536014954826E-6,0.001242719915062925
184,194.43370692109255,6.354907752078898E-6,0.0012490748228150038
185,194.39092920798018,6.355151699609061E-6,0.0012554299745146128
186,194.34821858764408,6.231489070202133E-6,0.001261661463584815
187,194.30406347405517,6.296639742691033E-6,0.0012679581033275059
188,194.25998928343415,6.188566635397912E-6,0.0012741466699629038
189,194.21610606601652,6.236593461595156E-6,0.001280383263424499
190,194.17205431119194,6.157506995504881E-6,0.001286540770420004
191,194.12883077788297,6.193589568856786E-6,0.0012927343599888608
192,194.08252759545513,6.317800944239099E-6,0.0012990521609331
193,194.03685623143346,6.267134064077868E-6,0.0013053192949971778
194,193.98977487996453,6.30413793636452E-6,0.0013116234329335424
195,193.94273736501248,6.373509319093815E-6,0.0013179969422526363
196,193.89712918272437,6.278735706283473E-6,0.0013242756779589197
197,193.85186325867173,6.457338797880797E-6,0.0013307330167568006
198,193.80667671237458,6.4888549630282935E-6,0.001337221871719829
199,193.76180068775776,6.517916472043343E-6,0.0013437397881918723
200,193.7154383804371,6.511165584335062E-6,0.0013502509537762074
201,193.67056168546858,6.444128104871543E-6,0.001356695081881079
202,193.62462402592936,6.4185078678690205E-6,0.001363113589748948
203,193.57865717881313,6.492397230274119E-6,0.0013696059869792222
204,193.53186351470518,6.505360252943641E-6,0.0013761113472321657
205,193.4857185479358,6.5157678569015325E-6,0.0013826271150890672
206,193.43916131565194,6.3889204728230345E-6,0.00138901603556189
207,193.39201346331103,6.3778702305295635E-6,0.0013953939057924196
208,193.34290264497486,6.504032085718949E-6,0.0014018979378781385
209,193.29420768956803,6.414895354367704E-6,0.001408312833232506
210,193.24552703253815,6.4997642268081444E-6,0.0014148125974593143
211,193.19611757170023,6.556700459696336E-6,0.0014213692979190107
212,193.14807571899777,6.514760143249832E-6,0.0014278840580622604
213,193.10017187708465,6.547708740666848E-6,0.0014344317668029273
214,193.0538287920608,6.481692524917015E-6,0.0014409134593278443
215,193.00798038303185,6.331410954788831E-6,0.0014472448702826332
216,192.96171953883936,6.289753297310821E-6,0.001453534623579944
217,192.9144168823306,6.287668065018762E-6,0.0014598222916449627
218,192.86606400223693,6.313234803781882E-6,0.0014661355264487445
219,192.8182750151309,6.223480423770595E-6,0.001472359006872515
220,192.77000488802875,6.121791862803063E-6,0.001478480798735318
221,192.72153024139612,6.218063046209127E-6,0.0014846988617815272
222,192.67348391579966,6.1895522481772954E-6,0.0014908884140297045
223,192.62498227755913,6.187239814832188E-6,0.0014970756538445367
224,192.5776425419388,6.119984557711471E-6,0.0015031956384022483
225,192.53163598854013,6.072393923148063E-6,0.0015092680323253963
226,192.48460521450605,6.081729147750986E-6,0.0015153497614731474
227,192.43945190619647,6.174610520008212E-6,0.0015215243719931557
228,192.39430644839615,6.242179401398807E-6,0.0015277665513945544
229,192.34877106112384,6.257493738546235E-6,0.0015340240451331008
230,192.30073680296007,6.400542968724733E-6,0.0015404245881018256
231,192.25208402803855,6.438744727565292E-6,0.0015468633328293909
232,192.20337623526783,6.447807145227579E-6,0.0015533111399746184
233,192.15429650781672,6.566119805914382E-6,0.001559877259780533
234,192.10525807734055,6.60008408510034E-6,0.0015664773438656332
235,192.05735816906815,6.490224391251821E-6,0.001572967568256885
236,192.00705687935024,6.643103380947706E-6,0.0015796106716378325
237,191.95573127415017,6.599554210307183E-6,0.0015862102258481397
238,191.9052376374936,6.528060666205987E-6,0.0015927382865143457
239,191.85165974323832,6.569957053164117E-6,0.0015993082435675097
240,191.79811435610307,6.506090885546126E-6,0.0016058143344530559
241,191.7443349609584,6.524039978610325E-6,0.0016123383744316663
242,191.69067986837277,6.51175061307915E-6,0.0016188501250447454
243,191.63735207726452,6.5569094585988795E-6,0.0016254070345033443
244,191.58437600508145,6.668905348023294E-6,0.0016320759398513677
245,191.5297382005795,6.673389859430083E-6,0.0016387493297107978
246,191.47559650321372,6.638181290704838E-6,0.0016453875110015027
247,191.4204139760342,6.623739774405971E-6,0.0016520112507759086
248,191.36532754684302,6.660690619780559E-6,0.001658671941395689
249,191.312347204376,6.649526204904387E-6,0.0016653214676005934
250,191.2581154504206,6.721456529910295E-6,0.0016720429241305038
251,191.20287966316383,6.810996152661232E-6,0.0016788539202831651
252,191.14724738385348,6.804797956874424E-6,0.0016856587182400395
253,191.09300574062016,6.814837072573201E-6,0.0016924735553126126
254,191.0390798624811,6.8026365020187435E-6,0.0016992761918146315
255,190.98554447699362,6.657119129746818E-6,0.0017059333109443783
256,190.92970172305363,6.815949734386008E-6,0.0017127492606787643
257,190.87320375913583,6.868890366166931E-6,0.0017196181510449314
258,190.81668268351171,6.914494274548914E-6,0.0017265326453194802
259,190.760469269648,6.858077196093803E-6,0.0017333907225155739
260,190.70531112519717,6.6494350993084045E-6,0.0017400401576148823
261,190.65060346990794,6.627201681175252E-6,0.0017466673592960575
262,190.59250311529752,6.655364507993655E-6,0.001753322723804051
263,190.53473325908436,6.564154507247653E-6,0.0017598868783112987
264,190.47718234978808,6.533737599178658E-6,0.0017664206159104774
265,190.41747412714975,6.579714789455333E-6,0.0017730003306999328
266,190.35834383658974,6.622338127797957E-6,0.0017796226688277306
267,190.30008135270486,6.650105323923284E-6,0.001786272774151654
268,190.23786317940417,6.742743095720114E-6,0.001793015517247374
269,190.17619282126736,6.713770631443841E-6,0.001799729287878818
270,190.11495437672005,6.692295954730787E-6,0.0018064215838335487
271,190.05207468473577,6.713759143290162E-6,0.0018131353429768388
272,189.9873187634904,6.80063954171152E-6,0.0018199359825185502
273,189.9232682850163,6.829011860935137E-6,0.0018267649943794853
274,189.85983094705497,6.819382763309609E-6,0.001833584377142795
275,189.7963679946973,6.8013412446751595E-6,0.00184038571838747
276,189.73209656104373,6.812876577763417E-6,0.0018471985949652335
277,189.6686931684652,6.580847829914757E-6,0.0018537794427951483
278,189.60578715017266,6.5339306608792855E-6,0.0018603133734560275
279,189.54248691492663,6.668273306386674E-6,0.0018669816467624142
280,189.48082111009603,6.607392366083317E-6,0.0018735890391284975
281,189.4190406477581,6.563890264492839E-6,0.0018801529293929903
282,189.35804384592765,6.577840442734396E-6,0.0018867307698357246
283,189.29771941852536,6.574583778743786E-6,0.0018933053536144683
284,189.23676146738987,6.6521330529647284E-6,0.001899957486667433
285,189.17694551701751,6.58027031730259E-6,0.0019065377569847356
286,189.1173660204961,6.496156542830659E-6,0.0019130339135275663
287,189.0577651649534,6.517666720524861E-6,0.0019195515802480911
288,188.99928418751682,6.413817292972454E-6,0.0019259653975410636
289,188.94149119347128,6.325295184440001E-6,0.0019322906927255036
290,188.88481329273006,6.367762891426748E-6,0.0019386584556169303
291,188.82876476541227,6.3840645000673925E-6,0.0019450425201169976
292,188.7708825820654,6.403143954389338E-6,0.0019514456640713869
293,188.71180952047666,6.448523974826823E-6,0.0019578941880462135
294,188.65517034829617,6.3606123498656934E-6,0.001964254800396079
295,188.59837794334058,6.349522036549655E-6,0.0019706043224326287
296,188.54317401258643,6.384628614906954E-6,0.0019769889510475357
297,188.49005849600238,6.378409874494603E-6,0.0019833673609220303
298,188.43778971589748,6.397137511179535E-6,0.00198976449843321
299,188.38507671517107,6.342096840224694E-6,0.0019961065952734344
300,188.33282448440295,6.337600819085333E-6,0.0020024441960925198
301,188.2797177931069,6.32781565610811E-6,0.002008772011748628
302,188.22750241741562,6.247519010804921E-6,0.0020150195307594328
303,188.17381275145,6.229901784379547E-6,0.002021249432543812
304,188.11952693565553,6.343694487631688E-6,0.002027593127031444
305,188.06497281124453,6.350298468924553E-6,0.0020339434255003683
306,188.01055682701664,6.421858209830537E-6,0.0020403652837101987
307,187.9574764430161,6.432217380492927E-6,0.0020467975010906914
