#t,ESS,tempDiff,temp
0,999.9999999999848,0.0,0.0
1,999.9899999999934,2.687316459990186E-5,2.687316459990186E-5
2,999.9603621536058,2.7106109099683685E-5,5.3979273699585544E-5
3,999.9117060228799,2.7219120286709722E-5,8.119839398629527E-5
4,999.8442203354787,2.728410410274288E-5,1.0848249808903815E-4
5,999.7582990469231,2.728364116694884E-5,1.35766139255987E-4
6,999.6543081895032,2.706333801691587E-5,1.6282947727290286E-4
7,999.5327309724512,2.6976411990968607E-5,1.8980588926387147E-4
8,999.3940548352565,2.6904860810533E-5,2.1671075007440447E-4
9,999.2384597263725,2.6950287965130207E-5,2.4366103803953468E-4
10,999.0659389544147,2.687850999688224E-5,2.705395480364169E-4
11,998.8772647174127,2.6720998204387185E-5,2.972605462408041E-4
12,998.6720579403662,2.6545524802895237E-5,3.2380607104369935E-4
13,998.4497371322589,2.6495019189001157E-5,3.503010902327005E-4
14,998.2108604879734,2.6573854812340626E-5,3.7687494504504116E-4
15,997.9566099140004,2.65231954952913E-5,4.033981405403325E-4
16,997.688743374529,2.6590088560326845E-5,4.299882291006593E-4
17,997.4069477024296,2.6412645545099507E-5,4.564008746457588E-4
18,997.1104548040997,2.6478973267855004E-5,4.828798479136138E-4
19,996.7985653901112,2.650893248418983E-5,5.093887803978036E-4
20,996.472182842341,2.6454612089431428E-5,5.35843392487235E-4
21,996.1323751458824,2.6245518980563555E-5,5.620889114677986E-4
22,995.778511901035,2.6122969171470205E-5,5.882118806392688E-4
23,995.412780869398,2.6190863445943425E-5,6.144027440852123E-4
24,995.0311972587122,2.610538646142261E-5,6.405081305466349E-4
25,994.6355293730502,2.6023132207750964E-5,6.665312627543859E-4
26,994.2269365479945,2.602472559381492E-5,6.925559883482008E-4
27,993.8071140762896,2.6132497287649627E-5,7.186884856358504E-4
28,993.3738089079353,2.6028228756017915E-5,7.447167143918683E-4
29,992.9280177143227,2.5819963234804403E-5,7.705366776266727E-4
30,992.4672258429171,2.56669756376202E-5,7.962036532642929E-4
31,991.9943881920617,2.5594602187425304E-5,8.217982554517183E-4
32,991.5110665725022,2.5583105083867706E-5,8.47381360535586E-4
33,991.0153129042343,2.5685929054018513E-5,8.730672895896045E-4
34,990.5099646121863,2.5643570131525752E-5,8.987108597211303E-4
35,989.9944230048931,2.5860860817916636E-5,9.24571720539047E-4
36,989.4714451414404,2.6227712706696433E-5,9.507994332457434E-4
37,988.9394651701086,2.656606593924303E-5,9.773654991849865E-4
38,988.3943534502844,2.6666233536436136E-5,0.0010040317327214227
39,987.8408172562519,2.630819246694378E-5,0.0010303399251883664
40,987.2758348184184,2.6236140365227136E-5,0.0010565760655535934
41,986.6979852223369,2.630634829402179E-5,0.001082882413847615
42,986.1110011838197,2.6459173676694427E-5,0.0011093415875243096
43,985.5238286357911,2.645676916267538E-5,0.001135798356686985
44,984.9317993443425,2.6189601179689563E-5,0.0011619879578666746
45,984.3231458780328,2.615204353852363E-5,0.0011881400014051983
46,983.7006761243562,2.6312862861504586E-5,0.0012144528642667029
47,983.0762231591973,2.618628799104038E-5,0.0012406391522577433
48,982.4463771665525,2.5994191568593764E-5,0.001266633343826337
49,981.8169020486026,2.5828052142094262E-5,0.0012924613959684314
50,981.179382014608,2.591431910234878E-5,0.0013183757150707803
51,980.5371252917138,2.595495998810644E-5,0.0013443306750588867
52,979.8847002238867,2.6390444601591887E-5,0.0013707211196604787
53,979.2250287506508,2.643858505065014E-5,0.001397159704711129
54,978.5580382085938,2.643680011181638E-5,0.0014235965048229452
55,977.8767322210032,2.632367866976748E-5,0.0014499201834927127
56,977.1957853946069,2.5909415074567537E-5,0.0014758295985672803
57,976.5114180338458,2.5804425078866514E-5,0.0015016340236461468
58,975.8126814271662,2.57626104350426E-5,0.0015273966340811893
59,975.1031628852099,2.59416590204923E-5,0.0015533382931016816
60,974.3856027462808,2.6055331848644867E-5,0.0015793936249503264
61,973.662662462589,2.597150878527368E-5,0.0016053651337356002
62,972.9344260781296,2.6173465386697253E-5,0.0016315385991222974
63,972.1935487048873,2.6306934569494267E-5,0.0016578455336917917
64,971.4351233658704,2.6206250529049376E-5,0.001684051784220841
65,970.6700320869533,2.622080241323818E-5,0.0017102725866340793
66,969.9058392647806,2.6123091693774214E-5,0.0017363956783278535
67,969.1438972625225,2.6421136974712294E-5,0.0017628168153025659
68,968.3763723675422,2.653165768547357E-5,0.0017893484729880394
69,967.6112857916067,2.6301899699353607E-5,0.0018156503726873931
70,966.8384177650249,2.6212256025357984E-5,0.001841862628712751
71,966.0586291284958,2.654068612225247E-5,0.0018684033148350036
72,965.2675900162853,2.652302013484757E-5,0.0018949263349698512
73,964.4737474441176,2.6562079032365044E-5,0.0019214884140022162
74,963.6831656643478,2.647212329034939E-5,0.0019479605372925656
75,962.8869315703797,2.6327666736488513E-5,0.001974288204029054
76,962.0781209690779,2.6231027559317797E-5,0.002000519231588372
77,961.2545039410795,2.629061422382777E-5,0.0020268098458121994
78,960.4278678050508,2.640570165283967E-5,0.002053215547465039
79,959.6005323449004,2.657476143159566E-5,0.002079790308896635
80,958.7598925110105,2.671499892766157E-5,0.0021065053078242967
81,957.9105070913912,2.6701337502943847E-5,0.0021332066453272408
82,957.0542665486665,2.678711285192428E-5,0.002159993758179165
83,956.1989963731082,2.676187899819382E-5,0.002186755637177359
84,955.3470140606927,2.677743727870915E-5,0.002213533074456068
85,954.491755813381,2.6893702939612637E-5,0.002240426777395681
86,953.6319738104235,2.6667615362343212E-5,0.0022670943927580243
87,952.757382460801,2.682444962254747E-5,0.002293918842380572
88,951.8757214573097,2.6837193884846164E-5,0.002320756036265418
89,950.9865883905991,2.6885964153374063E-5,0.002347642000418792
90,950.08123055966,2.691671259792814E-5,0.0023745587130167205
91,949.1800449555135,2.7048812085828443E-5,0.0024016075251025487
92,948.281427642907,2.7434109544434706E-5,0.0024290416346469832
93,947.3725496201192,2.7428953086108078E-5,0.0024564705877330915
94,946.4516057324654,2.7630362151790925E-5,0.0024841009498848825
95,945.5277159800497,2.7383034141658093E-5,0.0025114839840265405
96,944.5957017676841,2.727548290300617E-5,0.0025387594669295465
97,943.6537867075131,2.714209600033788E-5,0.0025659015629298843
98,942.709058383089,2.7191725246636026E-5,0.0025930932881765203
99,941.7518551091505,2.734727211126825E-5,0.0026204405602877887
100,940.7909857636155,2.746962600476891E-5,0.0026479101862925576
101,939.8301933096539,2.733035313008993E-5,0.0026752405394226473
102,938.8622884995,2.7278702495810335E-5,0.0027025192419184575
103,937.8819249930004,2.6953976744093064E-5,0.0027294732186625504
104,936.8935534057987,2.6731557957370504E-5,0.0027562047766199207
105,935.8947915146512,2.661697084142012E-5,0.0027828217474613406
106,934.8865149104512,2.661590871098875E-5,0.0028094376561723293
107,933.8732049932389,2.6631438606731738E-5,0.002836069094779061
108,932.8607558237762,2.6414209327540722E-5,0.0028624833041066017
109,931.8398984800378,2.650122410718384E-5,0.0028889845282137855
110,930.8136988820531,2.6700276654444506E-5,0.0029156848048682298
111,929.7773567716171,2.6570673180497536E-5,0.0029422554780487273
112,928.7449088258728,2.646624820238414E-5,0.0029687217262511115
113,927.7101487706926,2.6548294507697842E-5,0.002995270020758809
114,926.6641575786591,2.6692774264409736E-5,0.0030219627950232187
115,925.6138821932395,2.6798605241496745E-5,0.0030487614002647156
116,924.576195973689,2.685138154862756E-5,0.003075612781813343
117,923.5204525608731,2.670983852237478E-5,0.003102322620335718
118,922.4577623522167,2.6868818474992186E-5,0.00312919143881071
119,921.3958805074052,2.7056388105539917E-5,0.00315624782691625
120,920.3284044487158,2.719716665071512E-5,0.003183444993566965
121,919.2665926695563,2.7055487333396003E-5,0.003210500480900361
122,918.1883211544493,2.7049845850893906E-5,0.003237550326751255
123,917.106852647763,2.7141135790833303E-5,0.0032646914625420885
124,916.032288860091,2.733154631774519E-5,0.0032920230088598337
125,914.9573779057774,2.746668080473357E-5,0.0033194896896645673
126,913.877846841593,2.733939453009664E-5,0.0033468290841946638
127,912.8040521055067,2.7190384111909274E-5,0.003374019468306573
128,911.7164657316077,2.7033643127055087E-5,0.003401053111433628
129,910.6336432998597,2.6910997881494634E-5,0.003427964109315123
130,909.5448571146837,2.70115010047364E-5,0.003454975610319859
131,908.4551334046415,2.7089970153490296E-5,0.0034820655804733494
132,907.3884241597026,2.722366220629693E-5,0.0035092892426796464
133,906.3136095127452,2.7201794270540593E-5,0.003536491036950187
134,905.2405661085324,2.6933902198561343E-5,0.0035634249391487483
135,904.1559133707171,2.7020258946084368E-5,0.0035904451980948325
136,903.0707047993426,2.686525067167572E-5,0.003617310448766508
137,901.9863136851889,2.6742682553921985E-5,0.00364405313132043
138,900.9005891024336,2.6853110163777303E-5,0.0036709062414842075
139,899.8178183739408,2.6796197190284255E-5,0.003697702438674492
140,898.7270632370917,2.6640830346533877E-5,0.0037243432690210257
141,897.6552701088979,2.6782722564472226E-5,0.003751125991585498
142,896.5782147283314,2.6986163213687742E-5,0.0037781121547991858
143,895.4990511345635,2.689293230166351E-5,0.0038050050871008493
144,894.4183030657218,2.720570861249946E-5,0.003832210795713349
145,893.3198661063813,2.7144753649593727E-5,0.003859355549362943
146,892.2175674690708,2.7299451401875874E-5,0.0038866550007648185
147,891.1206033832291,2.7493323925100487E-5,0.003914148324689919
148,890.0143820165194,2.7896364549166653E-5,0.0039420446892390855
149,888.8991762168819,2.8092583399956225E-5,0.003970137272639042
150,887.7654167697882,2.8218088371232037E-5,0.003998355361010274
151,886.6438020592102,2.8190201168656253E-5,0.0040265455621789304
152,885.548395635019,2.8381961145560166E-5,0.00405492752332449
153,884.4401155820765,2.8510530579234156E-5,0.004083438053903724
154,883.3396177376084,2.8286257224508827E-5,0.004111724311128233
155,882.2281905392628,2.7975345406957453E-5,0.004139699656535191
156,881.1244956721092,2.7839300339368842E-5,0.00416753895687456
157,880.027780726449,2.7551633866898878E-5,0.004195090590741459
158,878.931650079493,2.7566152815391024E-5,0.00422265674355685
159,877.8329237324023,2.773743154163402E-5,0.004250394175098484
160,876.7433865732804,2.7852748573371615E-5,0.0042782469236718555
161,875.6550839599574,2.7911170391138693E-5,0.004306158094062994
162,874.5513652744067,2.76185066805417E-5,0.004333776600743536
163,873.4345268288664,2.7755193096843068E-5,0.004361531793840379
164,872.3189169360656,2.7502555516924035E-5,0.004389034349357303
165,871.1976784806276,2.7236521684299605E-5,0.0044162708710416025
166,870.0796087091534,2.7313285698882535E-5,0.004443584156740485
167,868.9453896613734,2.7106611067009846E-5,0.004470690767807495
168,867.8037886648756,2.694127606044445E-5,0.004497632043867939
169,866.6599011545901,2.74391031769584E-5,0.004525071147044897
170,865.4844710774898,2.7267047536070876E-5,0.004552338194580968
171,864.3147005215607,2.7122326608632276E-5,0.004579460521189601
172,863.1477885948088,2.6824554624371013E-5,0.004606285075813971
173,861.9810180898231,2.6971482722593495E-5,0.004633256558536565
174,860.8205439614653,2.7414723692176303E-5,0.004660671282228741
175,859.6597682077778,2.7439396114872985E-5,0.0046881106783436145
176,858.4850319488878,2.7494918764359895E-5,0.0047156055971079745
177,857.2980084284451,2.7524912454981367E-5,0.004743130509562956
178,856.1072104497877,2.7200033127715103E-5,0.004770330542690671
179,854.898390198475,2.7152349065312706E-5,0.004797482891755984
180,853.727467315938,2.7187469029882718E-5,0.004824670360785866
181,852.5527983307832,2.7015035904334178E-5,0.0048516853966902
182,851.3904169378827,2.7026588112595995E-5,0.004878711984802797
183,850.2147016632755,2.7253435434407113E-5,0.0049059654202372035
184,849.0375340641345,2.7257458113771368E-5,0.0049332228783509745
185,847.8515406322946,2.731597810724727E-5,0.004960538856458222
186,846.6433248081677,2.7214021723832684E-5,0.004987752878182055
187,845.4119773603088,2.7324015763670535E-5,0.005015076893945725
188,844.1846636786066,2.7394625939324612E-5,0.00504247151988505
189,842.9629307748779,2.7635455335094074E-5,0.005070106975220144
190,841.7611349107169,2.7612698447834612E-5,0.005097719673667979
191,840.5228447844488,2.7392581521592874E-5,0.005125112255189572
192,839.2972941552856,2.7499000152624013E-5,0.005152611255342196
193,838.0805733817134,2.7483375463227157E-5,0.005180094630805423
194,836.8535855618344,2.7438242794884008E-5,0.0052075328736003075
195,835.6226723824511,2.727820021315543E-5,0.005234811073813463
196,834.400398092296,2.7208148887953976E-5,0.005262019222701417
197,833.1816525258038,2.7143486874296492E-5,0.005289162709575713
198,831.9623660751134,2.7230645067894505E-5,0.005316393354643608
199,830.7559169572927,2.7159790488616007E-5,0.005343553145132224
200,829.5512871275544,2.700252375227134E-5,0.0053705556688844955
201,828.3373920687084,2.70794687361344E-5,0.00539763513762063
202,827.1269861811775,2.703377148026038E-5,0.00542466890910089
203,825.9282767559871,2.686559186596602E-5,0.005451534500966856
204,824.7181615668912,2.6768027913819363E-5,0.005478302528880675
205,823.5100041924496,2.6661033988283814E-5,0.005504963562868959
206,822.3006462308936,2.6602261629956127E-5,0.005531565824498915
207,821.0857955111359,2.670879619575747E-5,0.005558274620694672
208,819.8622430625862,2.683578433704476E-5,0.005585110405031717
209,818.6581874247942,2.717035880387348E-5,0.005612280763835591
210,817.4746466655611,2.7216353518381583E-5,0.005639497117353972
211,816.2947723763688,2.6966285615124524E-5,0.0056664634029690965
212,815.1240145835577,2.696136312120506E-5,0.005693424766090301
213,813.935097237748,2.684527048027252E-5,0.005720270036570574
214,812.754023994859,2.6743800363660406E-5,0.005747013836934234
215,811.580813179298,2.6709484716210676E-5,0.005773723321650445
216,810.3956752355332,2.6865348045886377E-5,0.005800588669696331
217,809.2038859052042,2.661715186133682E-5,0.005827205821557668
218,808.011953206109,2.6686085496519452E-5,0.005853891907054187
219,806.8328760583985,2.672442801474971E-5,0.005880616335068937
220,805.6490326895052,2.6640065657345672E-5,0.0059072564007262825
221,804.4524216425283,2.6506190512081788E-5,0.005933762591238364
222,803.246636318879,2.6261296891257684E-5,0.005960023888129622
223,802.036593875151,2.6158136860305748E-5,0.005986182024989928
224,800.8241506954959,2.616014853101647E-5,0.0060123421735209445
225,799.5988863738903,2.626837861503307E-5,0.006038610552135977
226,798.3876966886883,2.622189612207366E-5,0.006064832448258051
227,797.1863507286075,2.631229712279521E-5,0.006091144745380846
228,795.9894866379598,2.6505934302231187E-5,0.006117650679683078
229,794.8060713607281,2.669043419288325E-5,0.006144341113875961
230,793.6418443733355,2.6746596567275276E-5,0.006171087710443236
231,792.4876654696369,2.691608268877259E-5,0.0061980037931320085
232,791.3093107580905,2.6728425446891176E-5,0.0062247322185789
233,790.1618548951182,2.6672934402099167E-5,0.006251405152980999
234,789.0063582567674,2.7008950785204684E-5,0.0062784141037662035
235,787.8537867484123,2.673407501279283E-5,0.006305148178778996
236,786.6781308679258,2.705708042467499E-5,0.006332205259203671
237,785.5015610406001,2.730436660195753E-5,0.006359509625805629
238,784.3550114992715,2.732311962403365E-5,0.006386832745429663
239,783.2061289622943,2.7920065652300545E-5,0.006414752811081963
240,782.0896991732496,2.7815673723048928E-5,0.006442568484805012
241,780.9452517437479,2.7628351358003087E-5,0.006470196836163016
242,779.8357871813995,2.7758316319177E-5,0.006497955152482192
243,778.6998625000945,2.7998949159089147E-5,0.006525954101641282
244,777.5492007295185,2.777087572093375E-5,0.006553724977362216
245,776.3820555279816,2.774016836565268E-5,0.006581465145727869
246,775.1707495395784,2.7653786222980645E-5,0.00660911893195085
247,773.9838472380945,2.7645978601216656E-5,0.006636764910552066
248,772.8120201369297,2.7681994956885217E-5,0.006664446905508951
249,771.6296210843577,2.758240892224973E-5,0.0066920293144312
250,770.450950650164,2.7341528872149713E-5,0.00671937084330335
251,769.2619438804712,2.715937752483085E-5,0.00674653022082818
252,768.0554031607285,2.697355283319424E-5,0.006773503773661375
253,766.8841418380586,2.6826529141958464E-5,0.006800330302803333
254,765.6954656882032,2.676029920726974E-5,0.006827090602010603
255,764.4841831418162,2.668691428147054E-5,0.0068537775162920735
256,763.2787913361487,2.6972364653523003E-5,0.006880749880945596
257,762.1068845324543,2.7124302417930457E-5,0.006907874183363527
258,760.9457039639772,2.705521978358813E-5,0.006934929403147115
259,759.7991073490455,2.709487913348405E-5,0.006962024282280599
260,758.6899050717085,2.7026071786366356E-5,0.006989050354066965
261,757.5749297591447,2.7115423306020645E-5,0.007016165777372986
262,756.4696484874381,2.71735403198854E-5,0.007043339317692871
263,755.344846263573,2.708929379188985E-5,0.007070428611484761
264,754.2177269301557,2.714805403307271E-5,0.007097576665517834
265,753.1028417524652,2.7298732041852055E-5,0.007124875397559686
266,751.9872903531501,2.745069604112441E-5,0.00715232609360081
267,750.8761042593487,2.7369720787352803E-5,0.007179695814388163
268,749.8118184131074,2.74177954152765E-5,0.007207113609803439
269,748.7587474278466,2.7447673950674968E-5,0.0072345612837541136
270,747.7104806913056,2.730310388464522E-5,0.007261864387638759
271,746.6923595704375,2.7313965003408028E-5,0.007289178352642167
272,745.6826350054749,2.7081718712494297E-5,0.007316260071354661
273,744.6472005380813,2.7150646126543134E-5,0.007343410717481204
274,743.6210700453821,2.730928406345011E-5,0.007370720001544654
275,742.6030840273336,2.7230334764785396E-5,0.00739795033630944
276,741.5888225397247,2.710455739162958E-5,0.007425054893701069
277,740.5655405445133,2.7266031561955448E-5,0.007452320925263024
278,739.5454670463618,2.720363928170672E-5,0.007479524564544731
279,738.545987792937,2.7474853948966154E-5,0.007506999418493697
280,737.5607390106522,2.739512281299722E-5,0.007534394541306694
281,736.5922717387934,2.758922228477619E-5,0.00756198376359147
282,735.6226041718061,2.7139908047141035E-5,0.007589123671638611
283,734.6560505797497,2.7239377596596858E-5,0.007616363049235207
284,733.6701534067134,2.7276867515599583E-5,0.007643639916750807
285,732.6762664593393,2.7217888992840795E-5,0.007670857805743648
286,731.7245777383405,2.719404827570133E-5,0.007698051854019349
287,730.7395147422701,2.7074121904419666E-5,0.007725125975923769
288,729.7404408476235,2.721136590142226E-5,0.007752337341825191
289,728.7494183485622,2.6962955925369007E-5,0.007779300297750561
290,727.7748896771125,2.6755618039128044E-5,0.007806055915789689
291,726.7495553631907,2.682986278136149E-5,0.007832885778571051
292,725.7336311739874,2.6757470889652695E-5,0.007859643249460703
293,724.7067301787675,2.658717625946359E-5,0.007886230425720167
294,723.6962009381946,2.694146126384315E-5,0.00791317188698401
295,722.6973524782968,2.69884145368646E-5,0.007940160301520876
296,721.6424921129719,2.6817465819193386E-5,0.00796697776734007
297,720.6011817136905,2.6998551958872713E-5,0.007993976319298943
298,719.5695494345864,2.684092755858806E-5,0.00802081724685753
299,718.5587667929397,2.691866485623439E-5,0.008047735911713766
300,717.5434732254392,2.656554060120168E-5,0.008074301452314967
301,716.5359133848557,2.661639515954134E-5,0.008100917847474508
302,715.5495381631428,2.6621404548722085E-5,0.00812753925202323
303,714.5634073535897,2.6592076345012982E-5,0.008154131328368243
304,713.5739431775746,2.6850058600058503E-5,0.008180981386968302
305,712.5877334475275,2.67262660801827E-5,0.008207707653048485
306,711.600748294925,2.6966862006325585E-5,0.00823467451505481
307,710.6206791934947,2.7112394568298543E-5,0.00826178690962311
308,709.6403567796018,2.7108776192937203E-5,0.008288895685816047
309,708.6680409952965,2.7130287268964963E-5,0.008316025973085013
310,707.6886126981284,2.7138701799802584E-5,0.008343164674884815
