#t,ESS,tempDiff,temp
0,200.00000000000065,0.0,0.0
1,199.9997999999997,6.7238854342511245E-6,6.7238854342511245E-6
2,199.9992047327476,6.782359036425625E-6,1.350624447067675E-5
3,199.99821825976477,6.711805132527476E-6,2.0218049603204226E-5
4,199.99684348727777,6.808157804198671E-6,2.7026207407402896E-5
5,199.99508311458055,6.8171569207017E-6,3.38433643281046E-5
6,199.99294873320972,6.900220471304949E-6,4.074358479940955E-5
7,199.99042856965366,6.924585343949527E-6,4.7668170143359076E-5
8,199.98754400226866,6.782214378473847E-6,5.445038452183292E-5
9,199.9843354090644,6.808939599476597E-6,6.125932412130952E-5
10,199.9807551059885,6.924037184298042E-6,6.818336130560756E-5
11,199.9768190542423,6.974921189151283E-6,7.515828249475884E-5
12,199.97255185978514,7.074329119548206E-6,8.223261161430705E-5
13,199.9679937582626,7.120960743488559E-6,8.935357235779561E-5
14,199.96309275506957,7.120340326889581E-6,9.647391268468519E-5
15,199.9578659431601,7.050530516170567E-6,1.0352444320085576E-4
16,199.9522711713222,7.030542332099779E-6,1.1055498553295554E-4
17,199.9463618966705,7.024590374598571E-6,1.175795759075541E-4
18,199.94011579324726,7.018629197765782E-6,1.245982051053199E-4
19,199.93361746140806,7.084665230176216E-6,1.316828703354961E-4
20,199.92680868960915,7.22578891787214E-6,1.3890865925336824E-4
21,199.9196973372723,7.210272625323628E-6,1.4611893187869187E-4
22,199.91224306110954,7.14378150707196E-6,1.5326271338576383E-4
23,199.90455672663285,7.172521544361598E-6,1.6043523493012543E-4
24,199.89663410794785,7.034277369737429E-6,1.6746951229986286E-4
25,199.88836201490784,7.002444082247953E-6,1.744719563821108E-4
26,199.8798586890768,7.1450068137509195E-6,1.8161696319586172E-4
27,199.8711093870854,7.158583115684657E-6,1.8877554631154637E-4
28,199.86207082665518,7.1197272224107725E-6,1.9589527353395714E-4
29,199.8526755450788,7.050135782574313E-6,2.0294540931653146E-4
30,199.84315023367034,7.060970608853933E-6,2.100063799253854E-4
31,199.83331589233578,7.0360329240020655E-6,2.1704241284938746E-4
32,199.82319030141662,6.945706910110413E-6,2.239881197594979E-4
33,199.8126843867082,7.0441785176652005E-6,2.3103229827716308E-4
34,199.80189636018727,7.129922280576506E-6,2.381622205577396E-4
35,199.79107124367036,7.15919456679567E-6,2.453214151245353E-4
36,199.77983181033755,7.05959794252656E-6,2.5238101306706185E-4
37,199.76837603642693,7.082886259797302E-6,2.5946389932685916E-4
38,199.75671345492873,6.993340051558043E-6,2.664572393784172E-4
39,199.74474708551435,7.1589721469833425E-6,2.7361621152540057E-4
40,199.7324120928415,7.262848832558177E-6,2.8087906035795875E-4
41,199.7200090325942,7.2720641842759785E-6,2.881511245422347E-4
42,199.70738301433263,7.170040892344077E-6,2.9532116543457877E-4
43,199.69464433369242,7.170203715970629E-6,3.024913691505494E-4
44,199.68188410368853,7.040150342807236E-6,3.0953151949335663E-4
45,199.66887931588408,7.004538789933659E-6,3.1653605828329027E-4
46,199.655672479302,6.877922829651052E-6,3.234139811129413E-4
47,199.64206979768275,6.913351630295565E-6,3.303273327432369E-4
48,199.62834510420706,6.85448886263402E-6,3.371818216058709E-4
49,199.614272078851,6.956529668837669E-6,3.4413835127470856E-4
50,199.5999059655834,6.918722750683315E-6,3.510570740253919E-4
51,199.58534600105025,6.920382683362884E-6,3.5797745670875474E-4
52,199.57077615407542,6.932985318557615E-6,3.6491044202731235E-4
53,199.55602835833,7.001901084015149E-6,3.719123431113275E-4
54,199.54092466153355,6.927074172542948E-6,3.7883941728387044E-4
55,199.52556449326715,7.047065991129017E-6,3.8588648327499944E-4
56,199.5099428909315,7.020346040002206E-6,3.9290682931500165E-4
57,199.49433152549912,6.9974208652075424E-6,3.999042501802092E-4
58,199.47888157189698,6.998815270532452E-6,4.0690306545074163E-4
59,199.46305453509405,7.073206564331531E-6,4.1397627201507315E-4
60,199.447092785432,7.201130941431128E-6,4.211774029565043E-4
61,199.43068481893155,7.294897189869E-6,4.2847230014637325E-4
62,199.41426454053965,7.391440263166253E-6,4.358637404095395E-4
63,199.39756647950412,7.32057561714392E-6,4.431843160266834E-4
64,199.38072515652098,7.422875537412752E-6,4.5060719156409613E-4
65,199.36399602051924,7.456044695568816E-6,4.5806323625966497E-4
66,199.34683784531515,7.499384508403507E-6,4.655626207680685E-4
67,199.32943337598695,7.400587361990108E-6,4.729632081300586E-4
68,199.31178156808485,7.557847974733704E-6,4.8052105610479234E-4
69,199.29370507666275,7.532254267012069E-6,4.880533103718044E-4
70,199.27511717394174,7.5562237713913535E-6,4.956095341431958E-4
71,199.25634534038468,7.3014027222271315E-6,5.029109368654229E-4
72,199.2373162424585,7.329025091720663E-6,5.102399619571435E-4
73,199.21821768183452,7.319039286346818E-6,5.175590012434903E-4
74,199.19910474108102,7.17940186593296E-6,5.247384031094233E-4
75,199.17995608475456,7.128098485759386E-6,5.318665015951827E-4
76,199.16042141346784,7.0098040663929025E-6,5.388763056615756E-4
77,199.1407972665075,6.873174177444618E-6,5.457494798390202E-4
78,199.1209492575301,6.735553608516633E-6,5.524850334475369E-4
79,199.10079349427383,6.716457747575864E-6,5.592014911951127E-4
80,199.0805986307213,6.6034961675755035E-6,5.658049873626883E-4
81,199.0605390733859,6.603358809437882E-6,5.724083461721262E-4
82,199.04020244913292,6.613859689676699E-6,5.790222058618029E-4
83,199.019504540195,6.525489281241435E-6,5.855476951430443E-4
84,198.99875699343838,6.4836900713696E-6,5.920313852144139E-4
85,198.97780853015232,6.474014264811049E-6,5.985053994792249E-4
86,198.95661454180154,6.434027876721564E-6,6.049394273559465E-4
87,198.93555303119547,6.3249623864322605E-6,6.112643897423788E-4
88,198.9142229958171,6.328365337535446E-6,6.175927550799142E-4
89,198.89269996587947,6.435300838776177E-6,6.240280559186904E-4
90,198.87078813096892,6.371036367346705E-6,6.30399092286037E-4
91,198.8485804664743,6.2980219131770204E-6,6.366971141992141E-4
92,198.82636663624857,6.323850176834441E-6,6.430209643760485E-4
93,198.80423194955486,6.3284580253612944E-6,6.493494224014099E-4
94,198.78164605673345,6.333442513235455E-6,6.556828649146453E-4
95,198.75843503302525,6.391430122767087E-6,6.620742950374124E-4
96,198.73568323268856,6.3915329868742165E-6,6.684658280242866E-4
97,198.71231761787172,6.47494982935435E-6,6.74940777853641E-4
98,198.6886710177919,6.466701294953264E-6,6.814074791485943E-4
99,198.66466647186138,6.491379356176177E-6,6.878988585047705E-4
100,198.64012800095153,6.535817200882177E-6,6.944346757056526E-4
101,198.61526103322603,6.520926139804746E-6,7.009556018454573E-4
102,198.58991353942426,6.561681960115998E-6,7.075172838055733E-4
103,198.56447144077086,6.608959682746668E-6,7.141262434883199E-4
104,198.53843562056653,6.604275906999418E-6,7.207305193953193E-4
105,198.51217736485967,6.668317201638814E-6,7.273988365969581E-4
106,198.48554769073505,6.675121857963996E-6,7.340739584549221E-4
107,198.458455122368,6.785839616944357E-6,7.408597980718665E-4
108,198.43141871667322,6.621873879881157E-6,7.474816719517476E-4
109,198.40428762869928,6.687906409476036E-6,7.541695783612237E-4
110,198.37711107199962,6.5968087000801995E-6,7.607663870613039E-4
111,198.35000523700393,6.635444363041961E-6,7.674018314243458E-4
112,198.32241060882905,6.617148556377635E-6,7.740189799807234E-4
113,198.29468556503937,6.517279156174986E-6,7.805362591368984E-4
114,198.26686460040133,6.468656683437885E-6,7.870049158203363E-4
115,198.23863493114692,6.409656620809488E-6,7.934145724411458E-4
116,198.21065768717963,6.401449740553989E-6,7.998160221816998E-4
117,198.18280028662943,6.569140432139066E-6,8.063851626138389E-4
118,198.15431142269193,6.479549096787305E-6,8.128647117106263E-4
119,198.1257338504124,6.504301306750928E-6,8.193690130173771E-4
120,198.09772764045817,6.485768296021982E-6,8.258547813133991E-4
121,198.06943747051673,6.422714637372872E-6,8.32277495950772E-4
122,198.04046253365334,6.368209858950181E-6,8.386457058097221E-4
123,198.01145681791024,6.359392140818874E-6,8.45005097950541E-4
124,197.98255847784446,6.276463199539278E-6,8.512815611500804E-4
125,197.9538600305991,6.261602422061729E-6,8.57543163572142E-4
126,197.92475348099933,6.330912956594243E-6,8.638740765287363E-4
127,197.89546620624398,6.35650137321365E-6,8.7023057790195E-4
128,197.86632521385167,6.40274745808095E-6,8.766333253600309E-4
129,197.8366925766769,6.404414713401226E-6,8.830377400734322E-4
130,197.80688907152685,6.473569453328625E-6,8.895113095267607E-4
131,197.77674915541988,6.5137198677727255E-6,8.960250293945334E-4
132,197.74649165499272,6.471775542722396E-6,9.024968049372558E-4
133,197.71568768717074,6.54449945146024E-6,9.09041304388716E-4
134,197.68447986425963,6.650068519145917E-6,9.15691372907862E-4
135,197.6533252381796,6.6722744040436675E-6,9.223636473119056E-4
136,197.62187369069832,6.7038851252633294E-6,9.290675324371689E-4
137,197.5903104539772,6.590125849370535E-6,9.356576582865394E-4
138,197.55879163532236,6.5770118467349975E-6,9.422346701332744E-4
139,197.5271871199194,6.548524057512783E-6,9.487831941907872E-4
140,197.49583561886277,6.594891488940878E-6,9.553780856797281E-4
141,197.4644875870069,6.610541577660999E-6,9.61988627257389E-4
142,197.43300604773935,6.640708546724817E-6,9.686293358041138E-4
143,197.40228924087268,6.759704822766866E-6,9.753890406268807E-4
144,197.37174405533074,6.568209332127393E-6,9.81957249959008E-4
145,197.34142164806678,6.606008512134454E-6,9.885632584711425E-4
146,197.31180651224875,6.860040602801393E-6,9.954232990739438E-4
147,197.2818107871469,6.91688582614309E-6,0.001002340184900087
148,197.2531511494484,6.96235458735067E-6,0.0010093025394874377
149,197.2250225119898,7.208333459344163E-6,0.001016510872946782
150,197.1965876594958,7.278756850119046E-6,0.001023789629796901
151,197.16800189780855,7.266943068343988E-6,0.001031056572865245
152,197.14051197782015,7.2627370203471615E-6,0.0010383193098855922
153,197.11279899727057,7.093531615295851E-6,0.0010454128415008882
154,197.08544515645954,7.100339264943871E-6,0.0010525131807658321
155,197.05735454357637,7.187432585434377E-6,0.0010597006133512665
156,197.02763564314284,7.198937678766606E-6,0.001066899551030033
157,196.99901237392723,7.12511688042967E-6,0.0010740246679104626
158,196.97120771806487,7.191732077441624E-6,0.0010812163999879042
159,196.94315334026157,7.185834829342496E-6,0.0010884022348172466
160,196.9151453162349,7.064779242799771E-6,0.0010954670140600465
161,196.88714037304467,6.919968320276767E-6,0.0011023869823803233
162,196.8593245545491,6.991393209594648E-6,0.001109378375589918
163,196.83106347612033,7.030983883957418E-6,0.0011164093594738754
164,196.80214581085227,6.979980358483275E-6,0.0011233893398323587
165,196.77273013698453,6.95083602334056E-6,0.0011303401758556992
166,196.74365318197795,7.03650457083821E-6,0.0011373766804265374
167,196.71438753091044,7.088961812351679E-6,0.0011444656422388891
168,196.68480082870965,7.034635587366339E-6,0.0011515002778262555
169,196.6554894331736,6.92800493378086E-6,0.0011584282827600363
170,196.62585235877435,7.088324703694056E-6,0.0011655166074637303
171,196.59582317592876,7.148996542348483E-6,0.0011726656040060787
172,196.56516678948876,7.16975661733226E-6,0.0011798353606234109
173,196.53454260309726,7.191007820755848E-6,0.0011870263684441668
174,196.50382157753964,7.10235061996316E-6,0.0011941287190641299
175,196.47367134366118,7.190321296927853E-6,0.0012013190403610578
176,196.4443267074867,7.163320120790445E-6,0.0012084823604818482
177,196.41487549253335,7.009481476983244E-6,0.0012154918419588314
178,196.38471734411993,7.0593287836978554E-6,0.0012225511707425292
179,196.35437765265868,7.014972972116349E-6,0.0012295661437146455
180,196.3244506893144,7.031750571188034E-6,0.0012365978942858336
181,196.2954006143767,6.969138704939786E-6,0.0012435670329907734
182,196.2661849986948,6.911616678245269E-6,0.0012504786496690186
183,196.23643501494365,6.983372702243672E-6,0.0012574620223712624
184,196.2072305894493,7.027335898139668E-6,0.0012644893582694021
185,196.1787809121344,7.005804162261656E-6,0.0012714951624316637
186,196.15030391712662,6.99131878295369E-6,0.0012784864812146173
187,196.12142929608547,7.058439321271286E-6,0.0012855449205358886
188,196.0929845708101,7.1647502323809745E-6,0.0012927096707682697
189,196.06406154288493,7.25960480891111E-6,0.0012999692755771809
190,196.03578583507098,7.209883992464844E-6,0.0013071791595696458
191,196.00547817608975,7.200615001853415E-6,0.0013143797745714992
192,195.97516664326275,7.41177401479922E-6,0.0013217915485862985
193,195.94581968467114,7.263660251288659E-6,0.0013290552088375872
194,195.91619810256302,7.0740176659992706E-6,0.0013361292265035864
195,195.88667517044786,7.048838990072252E-6,0.0013431780654936587
196,195.85767194030186,7.007942318301057E-6,0.0013501860078119598
197,195.82845543027256,7.088974551355227E-6,0.001357274982363315
198,195.79995651339513,7.072994439185554E-6,0.0013643479768025006
199,195.7717429127029,7.006719880562675E-6,0.0013713546966830632
200,195.74293125658573,6.857354031046789E-6,0.00137821205071411
201,195.7146027965631,6.717945854829346E-6,0.0013849299965689394
202,195.68703620196877,6.648887151382062E-6,0.0013915788837203214
203,195.65914517570553,6.725780222064198E-6,0.0013983046639423856
204,195.63239215822148,6.722174072111669E-6,0.0014050268380144972
205,195.6062041890766,6.772471147274662E-6,0.0014117993091617717
206,195.5799478417885,6.653572210335753E-6,0.0014184528813721074
207,195.5535458905028,6.758024365137418E-6,0.0014252109057372449
208,195.52645284344706,6.845691502461163E-6,0.001432056597239706
209,195.49944481626073,6.81661229442177E-6,0.0014388732095341277
210,195.47190700368813,6.7941825251826425E-6,0.0014456673920593102
211,195.44394090451644,6.826518178789806E-6,0.0014524939102381
212,195.41595325010007,6.950344709090617E-6,0.0014594442549471906
213,195.38752858482275,6.904850596057021E-6,0.0014663491055432476
214,195.359447523949,6.891988177319398E-6,0.001473241093720567
215,195.33131446436127,6.893282348967132E-6,0.0014801343760695342
216,195.30306464429427,6.9786080635668096E-6,0.001487112984133101
217,195.27470901395884,7.041069778508789E-6,0.00149415405391161
218,195.24577570522112,7.018639306403483E-6,0.0015011726932180134
219,195.2167201855453,6.9923841930622255E-6,0.0015081650774110757
220,195.18720620229993,7.052243543038815E-6,0.0015152173209541145
221,195.1572964783305,6.975369448834054E-6,0.0015221926904029487
222,195.12745262879383,6.878739445585414E-6,0.001529071429848534
223,195.09899744070376,6.977155082078727E-6,0.0015360485849306128
224,195.07141050970964,7.001262385392154E-6,0.001543049847316005
225,195.04423850432565,6.994864140297825E-6,0.001550044711456303
226,195.0165161417319,7.013150747513008E-6,0.0015570578622038159
227,194.9899796695332,7.2029536023290684E-6,0.001564260815806145
228,194.96445383439158,7.160853018482964E-6,0.0015714216688246278
229,194.93783035814874,7.185363350929215E-6,0.001578607032175557
230,194.9106991437979,7.139566098949381E-6,0.0015857465982745064
231,194.88387282946476,7.292852178882779E-6,0.001593039450453389
232,194.8558437979782,7.192654482690348E-6,0.0016002321049360794
233,194.82941783284525,7.163179665844397E-6,0.0016073952846019238
234,194.80220469616006,7.1214977768152115E-6,0.001614516782378739
235,194.77475912229795,7.108550545355163E-6,0.0016216253329240941
236,194.7468919230362,6.991795137021253E-6,0.0016286171280611155
237,194.7179199706958,7.0368574802711465E-6,0.0016356539855413867
238,194.68845753459527,7.063215905369236E-6,0.001642717201446756
239,194.6591083911062,7.031267734176401E-6,0.0016497484691809323
240,194.62892855685095,6.8663941941797725E-6,0.0016566148633751121
241,194.5991220021719,6.947769052847234E-6,0.0016635626324279593
242,194.57064953786502,6.962279900775475E-6,0.0016705249123287347
243,194.54191623302222,7.04768842497443E-6,0.0016775726007537092
244,194.51422732447867,7.2592733615677555E-6,0.0016848318741152768
245,194.48598399897884,7.231649191094125E-6,0.001692063523306371
246,194.45971516613704,7.136337391419823E-6,0.0016991998606977908
247,194.43173777122743,6.901350679833976E-6,0.0017061012113776248
248,194.40327285731505,6.762700224725863E-6,0.0017128639116023507
249,194.37321575398937,6.823013648667601E-6,0.0017196869252510184
250,194.34320982276932,6.907644746512701E-6,0.001726594569997531
251,194.31247330737597,6.809494347358922E-6,0.00173340406434489
252,194.28112847554533,6.7876229115436925E-6,0.0017401916872564335
253,194.2504279060445,6.737530110910924E-6,0.0017469292173673443
254,194.21955918378325,6.849736858253834E-6,0.0017537789542255982
255,194.18786132811303,6.794812756205512E-6,0.0017605737669818037
256,194.1565250265004,6.858806523398455E-6,0.001767432573505202
257,194.1242455351462,6.974643291112303E-6,0.0017744072167963144
258,194.0914066450828,6.970880532540233E-6,0.0017813780973288545
259,194.05858208797378,6.958642721666293E-6,0.0017883367400505208
260,194.0261405370618,7.018266860907399E-6,0.0017953550069114282
261,193.99369860516026,6.992102907407963E-6,0.0018023471098188362
262,193.9605028428156,7.148599170634E-6,0.0018094957089894702
263,193.92620878529803,7.040961690715156E-6,0.0018165366706801853
264,193.89147248364466,6.886560097049519E-6,0.0018234232307772348
265,193.85598669816008,6.912556779021393E-6,0.001830335787556256
266,193.8205854046979,6.926108636162414E-6,0.0018372618961924184
267,193.7844845005495,6.9729918163157205E-6,0.0018442348880087342
268,193.7481747994336,7.0952754762899445E-6,0.0018513301634850241
269,193.71204298930414,7.139091168945313E-6,0.0018584692546539695
270,193.67649945078728,7.08442987836701E-6,0.0018655536845323365
271,193.64050813872623,6.978083010212386E-6,0.0018725317675425488
272,193.60570012551915,7.09291842485107E-6,0.0018796246859674
273,193.57116687831538,6.955051005680689E-6,0.0018865797369730806
274,193.53654397480858,6.783902115290052E-6,0.0018933636390883707
275,193.50275648182262,6.7906594751300404E-6,0.0019001542985635008
276,193.46851363475744,6.865012322868259E-6,0.001907019310886369
277,193.4326877125082,6.725691942543123E-6,0.0019137450028289121
278,193.39686133627916,6.731164767181334E-6,0.0019204761675960934
279,193.36111442709642,6.867722919673056E-6,0.0019273438905157666
280,193.32518849641355,6.82211093935894E-6,0.0019341660014551255
281,193.2888470735493,6.8154554690230735E-6,0.0019409814569241485
282,193.2527815557226,6.768368298625101E-6,0.0019477498252227737
283,193.21713449689727,6.771881380403859E-6,0.0019545217066031777
284,193.18284245437604,6.805728043048645E-6,0.0019613274346462263
285,193.14940534003293,6.716179365102977E-6,0.0019680436140113292
286,193.11570434844668,6.6047815644869934E-6,0.0019746483955758163
287,193.08256076258633,6.669573660100383E-6,0.0019813179692359166
288,193.04915019878004,6.6335849299684206E-6,0.001987951554165885
289,193.01600130331042,6.590905242808454E-6,0.0019945424594086936
290,192.9826178798678,6.348263685980581E-6,0.002000890723094674
291,192.9514175879985,6.428116040784591E-6,0.0020073188391354587
292,192.9181169331835,6.446641401990508E-6,0.002013765480537449
293,192.88372903728518,6.587486613385481E-6,0.0020203529671508347
294,192.8485399712643,6.587267930545272E-6,0.00202694023508138
295,192.81411852464998,6.5797953410400825E-6,0.00203352003042242
296,192.78021083820173,6.664158380718934E-6,0.002040184188803139
297,192.74717726452832,6.60999092563241E-6,0.002046794179728771
298,192.71346856818235,6.536940307049114E-6,0.00205333112003582
299,192.6809459836988,6.508804358133472E-6,0.0020598399243939537
300,192.64754925359452,6.571258399252764E-6,0.0020664111827932066
301,192.61503985814284,6.5984293234066054E-6,0.0020730096121166133
302,192.5818821544074,6.559409861927168E-6,0.0020795690219785404
303,192.54819502876768,6.495453004913019E-6,0.0020860644749834535
304,192.51509501112668,6.401131713082317E-6,0.002092465606696536
305,192.48140931885388,6.376338826140765E-6,0.002098841945522677
306,192.44658765893442,6.440392500758046E-6,0.0021052823380234348
307,192.41095997904375,6.458942629251559E-6,0.0021117412806526863
