#t,ESS,tempDiff,temp
0,37.000000000000014,0.0,0.0
1,36.99996300000002,4.269610015913931E-6,4.269610015913931E-6
2,36.99985300150151,4.423742042707502E-6,8.693352058621433E-6
3,36.99967080266499,4.5206929558338046E-6,1.3214045014455238E-5
4,36.999422331859314,4.348318786939196E-6,1.7562363801394435E-5
5,36.99910137720587,4.3654945015323875E-6,2.192785830292682E-5
6,36.99870718961936,4.395636110447611E-6,2.6323494413374433E-5
7,36.99823937112745,4.526855665632364E-6,3.08503500790068E-5
8,36.99770412982135,4.4897098056893614E-6,3.534005988469616E-5
9,36.99710712741762,4.526628472009368E-6,3.9866688356705526E-5
10,36.99644557138145,4.554630495724489E-6,4.4421318852430014E-5
11,36.99571610289313,4.383104400951171E-6,4.8804423253381185E-5
12,36.99493106680169,4.757413776208623E-6,5.356183702958981E-5
13,36.99407292692114,4.764793486174931E-6,5.832663051576474E-5
14,36.99318128506425,4.757620266164341E-6,6.308425078192909E-5
15,36.99222111062467,4.881950897687016E-6,6.79662016796161E-5
16,36.99120574641061,5.067389467317159E-6,7.303359114693326E-5
17,36.99011422896276,5.132238231130406E-6,7.816582937806367E-5
18,36.98896435689492,5.353864830255428E-6,8.35196942083191E-5
19,36.98774633964207,5.350031450695262E-6,8.886972565901436E-5
20,36.98646592613634,5.313628543380008E-6,9.418335420239436E-5
21,36.98512408809409,5.379593956160183E-6,9.956294815855454E-5
22,36.98373203162537,5.4674100370362965E-6,1.0503035819559084E-4
23,36.98228099132751,5.2920458554562334E-6,1.1032240405104707E-4
24,36.980867945258595,4.979297965274716E-6,1.153017020163218E-4
25,36.97944801777877,4.830856398580476E-6,1.2013255841490227E-4
26,36.97802009572535,5.00182240261892E-6,1.2513438081752118E-4
27,36.97651334010441,4.992017458373515E-6,1.3012639827589468E-4
28,36.975022380246,4.93278746685657E-6,1.3505918574275124E-4
29,36.97348814404412,4.677891028565101E-6,1.3973707677131635E-4
30,36.9718702726313,4.789452148416025E-6,1.4452652891973239E-4
31,36.97027942744534,4.943513735408783E-6,1.4947004265514116E-4
32,36.96865155046583,4.766345120569418E-6,1.5423638777571058E-4
33,36.966952499153,4.8159148841879805E-6,1.5905230265989858E-4
34,36.96519800672434,5.0022710182595886E-6,1.6405457367815816E-4
35,36.96337331053087,5.022135367771363E-6,1.6907670904592952E-4
36,36.961477842985296,5.0842557138408745E-6,1.741609647597704E-4
37,36.95957863636136,4.908014950132282E-6,1.7906897970990267E-4
38,36.95767466590544,4.795638702915101E-6,1.8386461841281778E-4
39,36.955768784602775,4.941323536659553E-6,1.8880594194947733E-4
40,36.953826052279716,4.883485000313873E-6,1.936894269497912E-4
41,36.951873139353566,4.792622168932771E-6,1.9848204911872397E-4
42,36.950075873412636,4.490001950422924E-6,2.029720510691469E-4
43,36.9481304112791,4.447536064297164E-6,2.0741958713344405E-4
44,36.94613158226511,4.4563461499482115E-6,2.1187593328339226E-4
45,36.94410512602192,4.448592446651825E-6,2.1632452573004408E-4
46,36.94197324527155,4.361160757932182E-6,2.2068568648797625E-4
47,36.939826581743226,4.099872761689088E-6,2.2478555924966535E-4
48,36.93760303453732,4.048817737064905E-6,2.2883437698673024E-4
49,36.93531479111504,4.218597245286992E-6,2.3305297423201725E-4
50,36.93298837068276,4.2176287017152176E-6,2.3727060293373246E-4
51,36.93047127257065,4.316397149005881E-6,2.4158700008273834E-4
52,36.92794930385609,4.7157283744323835E-6,2.463027284571707E-4
53,36.92539199399176,4.68018867130829E-6,2.50982917128479E-4
54,36.92281636311823,4.596152198531839E-6,2.5557906932701085E-4
55,36.92018206450533,4.743601444511886E-6,2.6032267077152275E-4
56,36.91753217970629,4.739081238306661E-6,2.6506175200982944E-4
57,36.9149635709493,4.935156144672863E-6,2.699969081545023E-4
58,36.912475431422926,4.9493166980031615E-6,2.7494622485250546E-4
59,36.909869781247615,5.098657360983152E-6,2.8004488221348864E-4
60,36.90727993880638,5.1357581383084915E-6,2.8518064035179714E-4
61,36.904688311871915,5.134472809868216E-6,2.9031511316166534E-4
62,36.9019877271472,4.94786319009394E-6,2.952629763517593E-4
63,36.89928311283677,5.506868554054895E-6,3.007698449058142E-4
64,36.89656886782316,5.536043565346465E-6,3.0630588847116067E-4
65,36.89381960029677,5.885949310286459E-6,3.1219183778144716E-4
66,36.891088609647525,5.224716605178131E-6,3.174165543866253E-4
67,36.888195071927704,5.299381833584603E-6,3.227159362202099E-4
68,36.88527392212948,5.431918050309486E-6,3.281478542705194E-4
69,36.882248432597684,5.388519180510303E-6,3.335363734510297E-4
70,36.87927106203252,5.561884258535739E-6,3.3909825770956546E-4
71,36.876369748930216,5.620528325369442E-6,3.447187860349349E-4
72,36.87360462032727,5.705991314731394E-6,3.504247773496663E-4
73,36.87095187797177,5.599584933935359E-6,3.5602436228360164E-4
74,36.868362137934554,5.668110842698813E-6,3.6169247312630045E-4
75,36.865659105185934,5.517019967960801E-6,3.6720949309426124E-4
76,36.86302617558141,5.7354690471472664E-6,3.729449621414085E-4
77,36.86030157450888,5.72063789394871E-6,3.786656000353572E-4
78,36.857521184810494,5.739278427828033E-6,3.8440487846318525E-4
79,36.854546889010564,5.874715896190397E-6,3.902795943593756E-4
80,36.85150802294154,5.945217008651138E-6,3.962248113680268E-4
81,36.84840760863748,5.558840473414896E-6,4.017836518414417E-4
82,36.84515762895057,5.4386264812383616E-6,4.0722227832268006E-4
83,36.84199663827803,5.584396978109911E-6,4.1280667530079E-4
84,36.838833482318776,5.665646864063545E-6,4.184723221648535E-4
85,36.83585478645565,6.118519945925548E-6,4.245908421107791E-4
86,36.83285884650487,6.022763761579736E-6,4.3061360587235884E-4
87,36.829896365186215,6.4088808451791335E-6,4.37022486717538E-4
88,36.82673499278901,6.454404215318765E-6,4.434768909328567E-4
89,36.823544814332216,6.374022566376262E-6,4.49850913499233E-4
90,36.8205078947054,6.26736180481522E-6,4.561182753040482E-4
91,36.8175243670265,6.160048543641383E-6,4.622783238476896E-4
92,36.81470102093649,6.253821233445805E-6,4.685321450811354E-4
93,36.81187520690555,7.355710824364673E-6,4.7588785590550004E-4
94,36.80876596547802,6.46055373143477E-6,4.823484096369348E-4
95,36.80556497499505,6.420246199161504E-6,4.887686558360963E-4
96,36.8023642878202,7.172959395150723E-6,4.95941615231247E-4
97,36.799077747038346,7.15193537419785E-6,5.030935506054448E-4
98,36.795301089276904,7.0018247864996964E-6,5.100953753919445E-4
99,36.79181080541345,7.006717279354847E-6,5.171020926712994E-4
100,36.78831232260379,7.319853779387038E-6,5.244219464506864E-4
101,36.78485792281185,7.452293332006627E-6,5.31874239782693E-4
102,36.78180818839739,6.725283490647675E-6,5.385995232733407E-4
103,36.77877659124668,6.69293114409257E-6,5.452924544174333E-4
104,36.77568396736484,6.8468380918599075E-6,5.521392925092933E-4
105,36.773038761226644,6.720909714560594E-6,5.588602022238539E-4
106,36.77033192884447,6.841948242876012E-6,5.657021504667299E-4
107,36.76739139862466,6.7181510926314795E-6,5.724203015593614E-4
108,36.764335927442566,6.59109365847269E-6,5.790113952178341E-4
109,36.76130860477755,6.534663194174996E-6,5.855460584120091E-4
110,36.75854035837568,5.642439241025623E-6,5.911884976530348E-4
111,36.7557101159597,6.114194023936389E-6,5.973026916769711E-4
112,36.75263526219156,6.141113309668002E-6,6.034438049866391E-4
113,36.74973161647005,6.324739030044611E-6,6.097685440166837E-4
114,36.74705459336291,6.3189003850184736E-6,6.160874444017021E-4
115,36.74451933545199,6.490807488510114E-6,6.225782518902123E-4
116,36.741960741842675,6.481747442351236E-6,6.290599993325635E-4
117,36.73944448676743,6.0724883445883744E-6,6.351324876771519E-4
118,36.736648025728634,6.058077132031684E-6,6.411905648091835E-4
119,36.73374572324872,6.026156132352728E-6,6.472167209415362E-4
120,36.730735435016015,5.7484803150125225E-6,6.529652012565488E-4
121,36.72785270850651,5.810246122312482E-6,6.587754473788613E-4
122,36.72521560326962,5.665753941304343E-6,6.644412013201656E-4
123,36.72260561050422,5.7676008077399855E-6,6.702088021279056E-4
124,36.720528887998,5.336776361425725E-6,6.755455784893314E-4
125,36.71839113145032,5.52075217128409E-6,6.810663306606155E-4
126,36.716186860954274,5.542960041949826E-6,6.866092907025652E-4
127,36.71421515051982,5.470838282810677E-6,6.92080128985376E-4
128,36.71221056158276,5.513446986102034E-6,6.97593575971478E-4
129,36.71023476201988,5.4210721757506965E-6,7.030146481472287E-4
130,36.70840453677136,5.382730865946404E-6,7.08397379013175E-4
131,36.70654331785744,5.081711891179779E-6,7.134790909043548E-4
132,36.704469439741,5.080462137299564E-6,7.185595530416544E-4
133,36.702196262745986,5.016931995094914E-6,7.235764850367492E-4
134,36.699743911799466,4.9584427642689215E-6,7.285349278010182E-4
135,36.69731911012673,5.035925078531203E-6,7.335708528795493E-4
136,36.69472271037483,4.89031897993862E-6,7.38461171859488E-4
137,36.6921368241598,4.917866682632717E-6,7.433790385421206E-4
138,36.68946336177726,4.982199316931134E-6,7.483612378590518E-4
139,36.686492462124846,4.897542630758746E-6,7.532587804898105E-4
140,36.68359757003324,5.090595938206626E-6,7.583493764280172E-4
141,36.68029517377084,4.9662665939346835E-6,7.633156430219519E-4
142,36.677008404266424,4.81784547171493E-6,7.681334884936668E-4
143,36.673640027461026,4.923979915187689E-6,7.730574684088545E-4
144,36.670081876585634,4.830021898369352E-6,7.778874903072239E-4
145,36.66668068637547,4.691934167380457E-6,7.825794244746043E-4
146,36.66328198060122,4.82865593836634E-6,7.874080804129706E-4
147,36.659702972010464,5.109550269454648E-6,7.925176306824253E-4
148,36.655971296486825,5.2521035213726475E-6,7.97769734203798E-4
149,36.652128322241474,5.203038880338494E-6,8.029727730841364E-4
150,36.648237772051615,5.162035966262101E-6,8.081348090503985E-4
151,36.64421107305107,5.3112491913155624E-6,8.13446058241714E-4
152,36.640226174774156,5.560084120613852E-6,8.190061423623278E-4
153,36.63601356274005,5.765615167113123E-6,8.247717575294409E-4
154,36.63190266232204,5.7438781484983545E-6,8.305156356779393E-4
155,36.627829379131,6.007693329687436E-6,8.365233290076267E-4
156,36.62378923495904,5.850206287075698E-6,8.423735352947024E-4
157,36.61964325195387,6.0315672125558654E-6,8.484051025072583E-4
158,36.615899147079304,5.935271378287742E-6,8.543403738855461E-4
159,36.61257336549526,6.125211741590016E-6,8.604655856271361E-4
160,36.60923576960833,6.3308883433569655E-6,8.66796473970493E-4
161,36.60584024061677,6.457776441132633E-6,8.732542504116256E-4
162,36.6023671729851,6.361278961673911E-6,8.796155293732996E-4
163,36.59876009856197,6.323278744789401E-6,8.85938808118089E-4
164,36.59516279121669,6.105729326363058E-6,8.92044537444452E-4
165,36.591411198992304,6.418507120877751E-6,8.984630445653298E-4
166,36.58756722034917,6.220469786478662E-6,9.046835143518084E-4
167,36.58337688144351,6.441427655455339E-6,9.111249420072638E-4
168,36.57881415951518,6.6402514789620195E-6,9.177651934862258E-4
169,36.57442884871615,6.774186524259407E-6,9.245393800104853E-4
170,36.570567573364855,5.936795655898566E-6,9.304761756663839E-4
171,36.566836076774266,6.005143565463475E-6,9.364813192318473E-4
172,36.56294830624412,5.915060847161225E-6,9.423963800790085E-4
173,36.55919882827294,6.338545869981087E-6,9.487349259489896E-4
174,36.554791684770585,6.344117305037922E-6,9.550790432540275E-4
175,36.550198801770534,6.665052574838733E-6,9.617440958288662E-4
176,36.54608551773339,6.3950591946502375E-6,9.681391550235164E-4
177,36.5420154409396,6.175009295264945E-6,9.743141643187813E-4
178,36.53755354282092,6.0427948334788576E-6,9.803569591522602E-4
179,36.53306131227175,5.635672492164964E-6,9.859926316444251E-4
180,36.528441691159216,5.5604370661925185E-6,9.915530687106175E-4
181,36.523754659507574,5.591981093488548E-6,9.97145049804106E-4
182,36.519253325026675,6.609754959313543E-6,0.0010037548047634195
183,36.515069069800866,6.5019034791111E-6,0.0010102567082425306
184,36.51080374641027,6.52586398788008E-6,0.0010167825722304106
185,36.50682327333886,6.492971522162821E-6,0.0010232755437525733
186,36.503430344941144,6.124168216693308E-6,0.0010293997119692666
187,36.50002657920077,6.299018626441005E-6,0.0010356987305957077
188,36.49692189670256,5.799676152421397E-6,0.0010414984067481292
189,36.49363915335221,5.6167238166818225E-6,0.001047115130564811
190,36.49071670128749,5.5058542172197935E-6,0.0010526209847820309
191,36.487978167128695,5.252028209015284E-6,0.0010578730129910461
192,36.48525991506887,5.062337259044323E-6,0.0010629353502500905
193,36.48241762040033,5.010851050988519E-6,0.001067946201301079
194,36.47961317893131,4.995262014681041E-6,0.00107294146331576
195,36.4766304211918,4.959125949331551E-6,0.0010779005892650917
196,36.47389371246516,5.112975761646229E-6,0.001083013565026738
197,36.47110668506066,4.9913219345141305E-6,0.0010880048869612521
198,36.46819512534939,4.98741169712122E-6,0.0010929922986583733
199,36.46538742104678,4.867566435547594E-6,0.0010978598650939208
200,36.46247731278583,5.000343203828082E-6,0.0011028602082977488
201,36.45949289526366,4.937760225555135E-6,0.0011077979685233039
202,36.4567025397682,4.955797532137601E-6,0.0011127537660554415
203,36.45401564595425,4.955588073581331E-6,0.001117709354129023
204,36.4511464507871,4.975865099847866E-6,0.0011226852192288707
205,36.448216577042736,4.9235191853993176E-6,0.00112760873841427
206,36.44521510079261,5.167960216129054E-6,0.001132776698630399
207,36.44255824265381,5.072981853792833E-6,0.0011378496804841918
208,36.43996482297929,5.0635432153727865E-6,0.0011429132236995647
209,36.43711080888623,4.86191424586586E-6,0.0011477751379454307
210,36.43411110508042,5.1166016178496E-6,0.0011528917395632803
211,36.430986683936865,5.201340779888862E-6,0.0011580930803431692
212,36.428019402044946,5.097803280645112E-6,0.0011631908836238142
213,36.42549124526037,5.15679863718025E-6,0.0011683476822609946
214,36.42280437486864,4.985189126195229E-6,0.0011733328713871899
215,36.419924019146755,4.867051559907355E-6,0.0011781999229470972
216,36.417171496327555,4.733435591010617E-6,0.0011829333585381078
217,36.41442038577853,5.112653000068252E-6,0.0011880460115381761
218,36.41183502676737,5.015006563287515E-6,0.0011930610181014637
219,36.40911307734611,4.5807779160133325E-6,0.0011976417960174771
220,36.40655613412758,4.614871007185579E-6,0.0012022566670246628
221,36.40397198314605,4.731904766481211E-6,0.001206988571791144
222,36.40108877986847,4.784344581031957E-6,0.001211772916372176
223,36.39799068793199,4.869539201972198E-6,0.001216642455574148
224,36.39454422232775,4.884616851858203E-6,0.0012215270724260062
225,36.39097835783354,4.764959726230335E-6,0.0012262920321522365
226,36.38689670251625,4.776390122650022E-6,0.0012310684222748866
227,36.38251790877242,4.978457422571337E-6,0.0012360468796974579
228,36.37792214123061,5.14324552999324E-6,0.0012411901252274511
229,36.37321952358444,5.199671410471429E-6,0.0012463897966379226
230,36.368699054526104,5.353539832306685E-6,0.0012517433364702293
231,36.36440635658491,5.5990941259809515E-6,0.0012573424305962102
232,36.3601911382723,5.681054112496941E-6,0.0012630234847087073
233,36.35581433315769,5.7994879453290875E-6,0.0012688229726540363
234,36.351147877937336,5.308235531730336E-6,0.0012741312081857665
235,36.34646246416145,5.129459302823923E-6,0.0012792606674885904
236,36.341883937205026,4.990637433377665E-6,0.001284251304921968
237,36.33716298697596,5.586941361786591E-6,0.0012898382462837546
238,36.33305031426599,5.530003154155763E-6,0.0012953682494379103
239,36.32899493343761,5.712915724162353E-6,0.0013010811651620728
240,36.32457254709388,5.8437541482700705E-6,0.0013069249193103428
241,36.32018078950225,5.717152787698303E-6,0.001312642072098041
242,36.31583537513039,5.3019731066584765E-6,0.0013179440452046995
243,36.31117250181586,5.416955378368884E-6,0.0013233610005830684
244,36.306148587829874,5.44147520851306E-6,0.0013288024757915815
245,36.3011197336963,5.465110918957097E-6,0.0013342675867105385
246,36.2955204243909,5.690992328351292E-6,0.0013399585790388898
247,36.28980806571971,5.507080692115544E-6,0.0013454656597310054
248,36.28460271446033,5.447452396288581E-6,0.001350913112127294
249,36.27990291842895,5.391269941721255E-6,0.0013563043820690153
250,36.274970041021966,5.4427726865375415E-6,0.001361747154755553
251,36.270097258090075,5.242366236857629E-6,0.0013669895209924105
252,36.26465180889815,5.237719121031602E-6,0.001372227240113442
253,36.25931685850477,5.126705497418862E-6,0.0013773539456108609
254,36.254031170477646,5.525496810445796E-6,0.0013828794424213067
255,36.2497103061608,5.371191407635683E-6,0.0013882506338289424
256,36.24560532603748,5.404988909347477E-6,0.00139365562273829
257,36.24225402030968,5.625161070624059E-6,0.001399280783808914
258,36.239323487107505,5.78711430002328E-6,0.0014050678981089373
259,36.235679289685,5.869349941852367E-6,0.0014109372480507897
260,36.23220959576387,5.917702086181149E-6,0.0014168549501369708
261,36.22875688620188,6.146851906962831E-6,0.0014230018020439336
262,36.2257003301455,6.174867157744471E-6,0.0014291766692016781
263,36.22256985816546,6.588317870499915E-6,0.001435764987072178
264,36.218999126218584,6.482724217797102E-6,0.0014422477112899753
265,36.21574328934251,6.5954665674851866E-6,0.0014488431778574605
266,36.21281533421916,6.410702527170773E-6,0.0014552538803846314
267,36.20940869488486,6.538498464742771E-6,0.0014617923788493741
268,36.205856317341585,7.0075037003942605E-6,0.0014687998825497683
269,36.202464511905625,6.739970932851911E-6,0.0014755398534826202
270,36.19947749136705,6.598015722408957E-6,0.001482137869205029
271,36.196774740285285,6.430805027057825E-6,0.0014885686742320868
272,36.19373613394412,6.498513980448177E-6,0.001495067188212535
273,36.19129971818849,6.874151296550357E-6,0.0015019413395090855
274,36.188539659355754,6.938164936498062E-6,0.0015088795044455835
275,36.185296464865885,6.983199194320737E-6,0.0015158627036399041
276,36.18207905986651,7.369652413184329E-6,0.0015232323560530885
277,36.17878173569463,7.787761450650934E-6,0.0015310201175037395
278,36.17591205803734,7.456167655383158E-6,0.0015384762851591227
279,36.17380918789486,7.583011512802367E-6,0.0015460592966719251
280,36.171978341496846,8.305273203072567E-6,0.0015543645698749976
281,36.17029000676982,8.541059093439953E-6,0.0015629056289684375
282,36.16818633059761,8.790552105787768E-6,0.0015716961810742253
283,36.16695839036348,8.559694340969637E-6,0.001580255875415195
284,36.165214986897276,8.713434986683174E-6,0.0015889693104018782
285,36.16351496316988,8.381070996208158E-6,0.0015973503813980863
286,36.16111566320017,8.224907167529033E-6,0.0016055752885656153
287,36.15871295875656,8.974473629572037E-6,0.0016145497621951875
288,36.155646251741395,8.986705794271031E-6,0.0016235364679894585
289,36.152451100870586,8.319449713564044E-6,0.0016318559177030225
290,36.14962885978679,7.558981925162085E-6,0.0016394148996281845
291,36.14645848863069,7.398082534849718E-6,0.0016468129821630342
292,36.14397409668721,7.057140719853227E-6,0.0016538701228828875
293,36.141924605404306,6.899536685561229E-6,0.0016607696595684488
294,36.14001608203744,6.747922120076421E-6,0.0016675175816885251
295,36.1380089161967,6.680758165356882E-6,0.001674198339853882
296,36.136015586513345,6.566686764042086E-6,0.001680765026617924
297,36.13338427145285,7.013560564404896E-6,0.001687778587182329
298,36.12994348393668,6.9732092703916125E-6,0.0016947517964527206
299,36.126871976504134,7.008309275398993E-6,0.0017017601057281197
300,36.12382157765019,6.97582937112756E-6,0.0017087359350992472
301,36.121164671545,6.605200831933633E-6,0.0017153411359311808
302,36.11809002826587,6.59444401357957E-6,0.0017219355799447604
303,36.11549104387852,6.762608030048598E-6,0.001728698187974809
304,36.11225575399715,7.2704995203241E-6,0.0017359686874951331
305,36.10865718305897,7.301458187556977E-6,0.0017432701456826902
306,36.10512034222107,7.19582958136591E-6,0.001750465975264056
307,36.10232735946112,7.044468531281889E-6,0.0017575104437953378
308,36.09912359970084,7.079078164040767E-6,0.0017645895219593785
309,36.09621187249065,7.460046822364016E-6,0.0017720495687817426
310,36.092985620674426,6.977875632800147E-6,0.0017790274444145428
